#Wave		#Intensity
4001.644531	5348.216309
4000.500000	5254.311035
3999.354492	5307.933594
3998.209961	5433.576172
3997.064453	5255.786133
3995.918945	5243.910645
3994.772461	5380.404297
3993.626953	5292.160156
3992.480469	5219.214844
3991.333984	5362.179199
3990.187500	5335.032227
3989.040039	5358.031738
3987.893555	5237.179688
3986.746094	5292.873535
3985.598633	5481.442871
3984.451172	5364.990723
3983.302734	5255.114258
3982.154297	5349.956543
3981.006836	5481.773438
3979.857422	5382.818848
3978.708984	5329.600586
3977.560547	5402.600586
3976.411133	5186.240234
3975.261719	5270.114258
3974.112305	5382.227539
3972.961914	5174.686523
3971.811523	5349.817383
3970.662109	5255.376953
3969.511719	5350.025391
3968.360352	5422.912109
3967.209961	5437.121582
3966.058594	5303.640137
3964.907227	5259.236816
3963.755859	5375.506836
3962.604492	5305.058594
3961.452148	5262.849121
3960.299805	5339.996582
3959.147461	5286.948242
3957.995117	5322.850586
3956.841797	5241.631836
3955.689453	5190.798340
3954.536133	5300.404785
3953.382813	5353.616699
3952.228516	5322.293945
3951.075195	5238.981934
3949.920898	5361.495605
3948.766602	5260.879883
3947.612305	5333.538574
3946.458008	5360.703125
3945.302734	5294.777344
3944.147461	5252.682617
3942.992188	5346.926758
3941.836914	5265.894531
3940.680664	5098.368652
3939.525391	5419.669922
3938.369141	5364.615723
3937.211914	5292.286621
3936.055664	5384.256348
3934.898438	5398.393066
3933.742188	5300.168945
3932.584961	5221.422852
3931.426758	5404.052734
3930.269531	5236.776855
3929.111328	5270.358398
3927.953125	5418.338867
3926.794922	5376.333496
3925.636719	5284.711426
3924.477539	5234.115723
3923.319336	5351.792969
3922.160156	5275.322754
3921.000000	5287.289063
3919.840820	5277.691406
3918.680664	5360.785156
3917.520508	5301.609375
3916.360352	5376.048340
3915.200195	5278.112793
3914.040039	5371.913574
3912.878906	5394.612793
3911.717773	5249.358398
3910.556641	5317.278809
3909.394531	5245.271973
3908.233398	5278.736328
3907.071289	5307.885254
3905.909180	5304.755859
3904.746094	5355.396484
3903.583984	5363.010742
3902.420898	5448.020996
3901.257813	5401.875488
3900.094727	5355.747070
3898.931641	5154.922852
3897.767578	5444.004395
3896.603516	5264.717285
3895.439453	5280.927246
3894.275391	5316.456055
3893.111328	5332.649902
3891.946289	5381.033691
3890.781250	5292.054688
3889.616211	5351.155762
3888.451172	5277.230957
3887.285156	5265.533691
3886.119141	5210.951172
3884.953125	5360.071777
3883.787109	5314.066406
3882.620117	5308.799316
3881.454102	5434.247559
3880.287109	5253.279297
3879.120117	5286.582520
3877.952148	5407.681152
3876.785156	5293.195801
3875.617188	5208.725098
3874.449219	5331.910645
3873.281250	5232.482910
3872.112305	5267.891602
3870.944336	5341.793945
3869.775391	5366.474121
3868.606445	5431.776367
3867.436523	5204.134766
3866.267578	5434.045898
3865.097656	5247.096191
3863.927734	5291.001953
3862.757813	5185.335449
3861.587891	5361.675781
3860.416992	5253.898438
3859.246094	5280.687500
3858.075195	5316.005859
3856.904297	5374.790527
3855.732422	5181.723633
3854.560547	5289.587891
3853.388672	5346.210938
3852.216797	5198.047852
3851.044922	5244.003906
3849.872070	5262.224121
3848.699219	5286.833008
3847.526367	5339.140137
3846.353516	5246.520020
3845.179688	5356.341797
3844.005859	5287.184570
3842.832031	5169.066895
3841.658203	5180.887695
3840.484375	5328.961426
3839.309570	5259.859375
3838.134766	5278.041016
3836.959961	5296.215332
3835.785156	5210.137207
3834.609375	5353.813477
3833.434570	5299.656250
3832.258789	5356.084961
3831.082031	5425.248047
3829.906250	5392.361816
3828.729492	5221.356445
3827.552734	5273.507813
3826.375977	5281.029297
3825.199219	5284.299316
3824.021484	5202.627441
3822.844727	5214.403320
3821.666992	5253.770020
3820.489258	5252.797363
3819.310547	5239.092773
3818.131836	5378.145508
3816.954102	5319.878418
3815.774414	5251.028809
3814.595703	5326.389648
3813.416992	5359.323242
3812.237305	5337.134277
3811.057617	5317.073242
3809.877930	5258.880371
3808.697266	5247.313965
3807.516602	5352.243164
3806.336914	5217.840820
3805.155273	5371.432129
3803.974609	5355.619141
3802.792969	5246.687500
3801.612305	5226.670898
3800.430664	5274.362305
3799.248047	5260.693359
3798.066406	5376.036621
3796.883789	5235.483887
3795.701172	5259.882324
3794.518555	5280.044434
3793.335938	5222.005859
3792.152344	5250.618652
3790.968750	5304.570801
3789.785156	5276.129395
3788.601563	5220.245605
3787.417969	5215.054688
3786.233398	5201.421875
3785.048828	5267.995117
3783.864258	5229.034668
3782.678711	5232.284180
3781.494141	5319.908691
3780.308594	5297.831543
3779.123047	5336.912109
3777.937500	5399.168945
3776.750977	5387.627930
3775.564453	5306.544922
3774.377930	5318.202637
3773.191406	5285.615723
3772.004883	5366.779297
3770.817383	5231.006348
3769.629883	5276.356445
3768.442383	5306.953125
3767.254883	5335.434082
3766.066406	5248.166504
3764.878906	5209.321289
3763.690430	5254.631836
3762.500977	5089.610352
3761.312500	5149.645020
3760.123047	5152.893555
3758.933594	5299.074707
3757.744141	5321.207520
3756.554688	5242.475098
3755.364258	5254.105957
3754.173828	5272.033691
3752.983398	5245.854004
3751.792969	5232.281250
3750.602539	5290.087891
3749.411133	5198.854004
3748.219727	5174.805176
3747.028320	5327.002441
3745.835938	5223.226074
3744.644531	5188.698242
3743.452148	5288.385254
3742.259766	5406.903320
3741.067383	5301.091797
3739.874023	5119.873535
3738.680664	5177.590820
3737.487305	5289.755859
3736.293945	5150.530762
3735.100586	5275.223145
3733.906250	5211.428711
3732.711914	5329.783203
3731.517578	5245.071289
3730.323242	5260.836426
3729.127930	5151.062012
3727.932617	5271.430664
3726.737305	5190.974609
3725.541992	5282.015625
3724.345703	5404.382324
3723.150391	5328.126465
3721.954102	5172.482910
3720.757813	5280.174316
3719.560547	5316.795410
3718.364258	5372.201660
3717.166992	5329.434570
3715.969727	5184.374023
3714.771484	5373.376953
3713.574219	5207.490234
3712.375977	5340.074707
3711.177734	5334.907227
3709.979492	5215.011719
3708.780273	5205.697754
3707.582031	5327.756836
3706.382813	5301.746582
3705.183594	5269.492188
3703.983398	5249.753906
3702.784180	5257.110840
3701.583984	5114.467773
3700.383789	5128.095215
3699.182617	5320.813477
3697.982422	5238.619141
3696.781250	5129.392578
3695.580078	5336.571289
3694.378906	5148.290527
3693.177734	5130.686523
3691.975586	5327.347656
3690.773438	5249.402344
3689.571289	5258.820801
3688.369141	5320.210938
3687.166016	5267.252930
3685.962891	5395.122070
3684.759766	5175.941406
3683.556641	5287.159180
3682.352539	5292.404785
3681.149414	5249.883789
3679.945313	5340.262207
3678.740234	5366.252930
3677.536133	5346.572266
3676.331055	5362.175781
3675.126953	5321.754883
3673.920898	5212.895020
3672.715820	5247.180176
3671.510742	5138.374023
3670.304688	5452.542969
3669.098633	5291.917969
3667.891602	5166.583984
3666.685547	5161.475586
3665.478516	5272.382324
3664.271484	5265.184082
3663.064453	5311.831543
3661.857422	5261.147949
3660.649414	5328.479492
3659.441406	5209.510254
3658.233398	5415.471680
3657.025391	5296.529785
3655.816406	5365.872070
3654.607422	5302.824707
3653.398438	5252.207031
3652.189453	5298.776367
3650.980469	5175.832031
3649.770508	5232.730957
3648.560547	5316.469727
3647.350586	5270.027344
3646.139648	5372.316895
3644.929688	5352.727051
3643.718750	5479.738770
3642.507813	5400.270508
3641.295898	5351.790527
3640.084961	5408.569824
3638.873047	5316.779785
3637.661133	5396.234375
3636.449219	5362.227051
3635.236328	5379.782715
3634.023438	5339.605957
3632.810547	5530.302734
3631.597656	5428.287109
3630.384766	5375.760254
3629.170898	5413.896484
3627.957031	5373.749512
3626.743164	5418.049316
3625.529297	5297.618164
3624.314453	5527.184082
3623.099609	5443.823730
3621.884766	5364.609863
3620.669922	5340.975098
3619.454102	5399.628906
3618.239258	5620.732910
3617.023438	5632.018555
3615.806641	5528.171875
3614.590820	5512.749023
3613.374023	5565.149414
3612.157227	5543.561035
3610.940430	5538.414551
3609.723633	5609.265137
3608.505859	5524.020020
3607.288086	5525.038574
3606.070313	5591.745605
3604.852539	5533.231934
3603.633789	5647.107422
3602.415039	5652.205078
3601.196289	5776.271484
3599.977539	5518.833496
3598.758789	5610.070801
3597.539063	5422.462402
3596.319336	5429.645508
3595.099609	5625.362305
3593.878906	5814.858398
3592.659180	5623.254395
3591.438477	5697.982422
3590.217773	5672.341309
3588.996094	5790.027344
3587.775391	5735.719727
3586.553711	5689.619141
3585.332031	5770.402344
3584.109375	5740.678711
3582.887695	5839.830566
3581.665039	5656.722656
3580.442383	5651.572754
3579.219727	5867.211426
3577.996094	5823.188477
3576.773438	5707.657227
3575.549805	5788.313477
3574.325195	5815.827148
3573.101563	5906.644531
3571.876953	5977.007324
3570.652344	5781.930176
3569.427734	5917.609863
3568.203125	5836.905762
3566.977539	5952.118652
3565.752930	5965.282227
3564.526367	6017.195801
3563.300781	5975.279785
3562.075195	5898.716797
3560.848633	5928.188477
3559.622070	5916.884766
3558.395508	6021.740234
3557.167969	5961.524414
3555.940430	5966.516602
3554.712891	5981.689453
3553.485352	6049.800293
3552.257813	6071.059082
3551.029297	6033.279785
3549.800781	6005.689941
3548.572266	6112.403809
3547.343750	6017.674805
3546.114258	6047.054199
3544.884766	6169.968750
3543.655273	6002.084961
3542.425781	6074.139648
3541.195313	6034.381836
3539.965820	6187.686035
3538.734375	6103.223633
3537.503906	6120.358398
3536.273438	6190.291016
3535.041992	6162.730469
3533.810547	6222.477539
3532.579102	6261.903320
3531.346680	6293.196777
3530.115234	6281.868652
3528.882813	6171.141113
3527.650391	6336.298340
3526.416992	6221.545410
3525.184570	6153.467773
3523.951172	6318.534668
3522.717773	6284.918457
3521.483398	6233.077637
3520.250000	6211.645508
3519.015625	6206.425781
3517.781250	6261.964355
3516.545898	6258.761230
3515.311523	6358.806641
3514.076172	6430.476563
3512.840820	6384.745605
3511.605469	6426.033691
3510.369141	6341.884277
3509.133789	6496.426758
3507.897461	6359.719238
3506.660156	6467.698242
3505.423828	6470.523926
3504.186523	6441.011230
3502.949219	6526.686523
3501.711914	6539.599609
3500.474609	6524.229004
3499.236328	6609.839355
3497.998047	6550.040039
3496.759766	6631.575195
3495.521484	6593.995605
3494.282227	6645.221191
3493.042969	6623.793457
3491.803711	6606.407715
3490.564453	6554.742188
3489.324219	6537.375488
3488.084961	6661.141113
3486.844727	6635.697754
3485.603516	6783.581055
3484.363281	6637.227051
3483.122070	6736.704102
3481.880859	6648.824707
3480.639648	6683.819824
3479.397461	6801.352051
3478.156250	6781.952637
3476.914063	6808.851563
3475.671875	6777.383789
3474.428711	6830.427246
3473.186523	6615.917480
3471.943359	6787.628418
3470.700195	6866.779297
3469.456055	6831.307617
3468.212891	6920.469727
3466.968750	6949.309082
3465.724609	6966.081543
3464.479492	6956.731934
3463.235352	6859.011719
3461.990234	6813.539063
3460.745117	7219.824219
3459.499023	6989.623047
3458.253906	6861.864258
3457.007813	7007.051270
3455.761719	7059.896484
3454.515625	6898.096680
3453.268555	6962.975098
3452.021484	7196.255859
3450.775391	7146.784180
3449.527344	7001.123047
3448.280273	7001.805176
3447.032227	6946.386719
3445.784180	7135.378418
3444.536133	7005.851074
3443.287109	7098.642578
3442.039063	7093.297852
3440.790039	7135.994629
3439.541016	7116.635254
3438.291016	7135.300293
3437.041992	7075.936035
3435.791992	7234.612793
3434.541992	7199.249512
3433.291016	7023.940430
3432.041016	7182.535645
3430.790039	7199.166504
3429.539063	7045.936523
3428.287109	7138.506348
3427.036133	7133.162109
3425.784180	7245.650879
3424.532227	7306.181152
3423.280273	7125.124512
3422.027344	7143.737793
3420.774414	7310.020508
3419.521484	7332.581543
3418.268555	7243.419922
3417.014648	7180.220215
3415.761719	7308.480469
3414.507813	7135.635742
3413.252930	7331.629883
3411.999023	7370.103027
3410.744141	7241.181152
3409.489258	7265.710449
3408.234375	7425.676758
3406.978516	7207.199707
3405.723633	7418.884766
3404.467773	7212.435059
3403.210938	7314.568848
3401.955078	7309.204102
3400.698242	7335.675293
3399.441406	7260.685059
3398.184570	7243.399902
3396.927734	7240.040039
3395.669922	7298.312500
3394.412109	7410.230957
3393.154297	7438.637695
3391.896484	7316.023926
3390.637695	7274.906738
3389.378906	7414.550293
3388.120117	7208.604492
3386.861328	7463.363770
3385.601563	7577.085449
3384.341797	7343.438477
3383.082031	7429.357910
3381.822266	7350.576172
3380.561523	7392.822266
3379.300781	7399.354004
3378.040039	7350.363770
3376.779297	7414.392090
3375.517578	7294.061523
3374.256836	7328.350098
3372.995117	7531.038086
3371.732422	7313.686035
3370.470703	7258.823730
3369.208008	7504.973145
3367.945313	7374.861328
3366.682617	7436.805664
3365.418945	7364.148438
3364.155273	7301.412109
3362.891602	7355.420410
3361.627930	7288.752930
3360.363281	7378.338867
3359.099609	7495.571289
3357.834961	7328.096191
3356.569336	7431.458008
3355.304688	7370.765625
3354.039063	7337.755859
3352.773438	7403.524414
3351.507813	7315.221680
3350.241211	7313.833496
3348.975586	7355.877441
3347.708984	7522.256836
3346.442383	7295.855469
3345.174805	7274.739746
3343.907227	7255.604004
3342.639648	7337.064453
3341.372070	7335.671387
3340.104492	7446.658691
3338.835938	7366.395996
3337.567383	7349.230469
3336.298828	7296.603027
3335.029297	7332.648438
3333.760742	7272.164551
3332.491211	7459.839355
3331.221680	7383.601563
3329.951172	7252.271973
3328.681641	7311.908691
3327.411133	7302.647949
3326.139648	7372.089355
3324.869141	7410.029785
3323.597656	7357.487305
3322.327148	7212.545898
3321.054688	7472.648438
3319.783203	7296.290039
3318.510742	7253.633789
3317.238281	7419.266602
3315.965820	7258.733398
3314.693359	7481.261230
3313.419922	7403.252930
3312.146484	7382.211914
3310.873047	7321.918457
3309.599609	7351.927734
3308.325195	7346.604492
3307.050781	7327.550781
3305.776367	7310.464844
3304.501953	7360.062988
3303.226563	7395.916992
3301.951172	7343.540039
3300.675781	7353.902832
3299.400391	7215.329590
3298.124023	7366.778320
3296.847656	7306.609863
3295.571289	7379.642090
3294.294922	7282.289063
3293.017578	7261.325195
3291.740234	7187.520020
3290.462891	7332.927246
3289.185547	7290.441895
3287.907227	7081.689453
3286.628906	7465.652344
3285.350586	7253.034180
3284.072266	7222.325684
3282.792969	7201.402344
3281.513672	7360.291992
3280.234375	7235.785645
3278.955078	7173.843750
3277.674805	7303.347656
3276.394531	7139.863770
3275.114258	7128.740723
3273.833984	7162.521484
3272.552734	7127.976074
3271.272461	7124.666504
3269.990234	7232.567871
3268.708984	7242.893066
3267.426758	7229.811035
3266.145508	7093.886719
3264.862305	7236.802246
3263.580078	7243.219727
3262.296875	7302.251953
3261.014648	7257.993652
3259.731445	7328.688965
3258.447266	7017.604980
3257.164063	7191.527344
3255.879883	7137.587402
3254.595703	7130.386230
3253.310547	6948.027344
3252.026367	7049.832031
3250.741211	7075.724121
3249.456055	7091.879883
3248.169922	7158.592773
3246.884766	7077.507813
3245.598633	7124.756836
3244.312500	7032.046875
3243.025391	6916.052246
3241.739258	7087.649414
3240.452148	7092.124023
3239.165039	6896.555664
3237.876953	7003.978516
3236.589844	7047.293457
3235.301758	6861.549805
3234.013672	6926.222168
3232.724609	6899.675781
3231.436523	6927.457031
3230.147461	6807.821289
3228.857422	6796.825195
3227.568359	6770.322266
3226.278320	6858.197266
3224.989258	6769.673828
3223.698242	6803.259277
3222.408203	6894.951172
3221.117188	6899.444336
3219.826172	6901.999023
3218.535156	6728.356934
3217.244141	6837.414551
3215.952148	6921.268555
3214.660156	6823.190430
3213.368164	6669.041504
3212.076172	6675.504395
3210.783203	6898.571777
3209.490234	6775.434082
3208.197266	6791.538086
3206.903320	6560.225586
3205.610352	6647.867188
3204.316406	6532.598633
3203.022461	6591.234375
3201.727539	6555.208496
3200.432617	6727.748047
3199.137695	6612.551758
3197.842773	6564.959473
3196.547852	6430.538086
3195.251953	6660.854980
3193.956055	6534.183105
3192.660156	6606.228027
3191.363281	6468.043457
3190.067383	6466.805176
3188.770508	6484.844727
3187.472656	6356.398438
3186.175781	6509.339844
3184.877930	6542.772949
3183.580078	6362.379883
3182.282227	6393.901367
3180.983398	6517.834961
3179.684570	6272.094727
3178.385742	6490.316895
3177.086914	6423.644531
3175.788086	6395.477539
3174.488281	6342.313477
3173.188477	6375.717773
3171.887695	6230.277344
3170.587891	6329.056641
3169.287109	6320.155273
3167.986328	6249.758789
3166.685547	6302.361816
3165.383789	6256.969238
3164.082031	6250.007813
3162.780273	6100.942871
3161.478516	6084.414063
3160.175781	6094.765137
3158.873047	6085.919922
3157.570313	6103.941895
3156.267578	6085.504883
3154.963867	6224.362305
3153.660156	6044.815918
3152.356445	5999.556641
3151.052734	6096.174805
3149.748047	6093.088867
3148.443359	6067.008301
3147.138672	6115.658691
3145.833984	6074.258789
3144.528320	6105.651855
3143.222656	6039.375977
3141.916992	5965.467773
3140.610352	5968.151367
3139.304688	6074.174805
3137.998047	6021.348145
3136.691406	6045.061523
3135.383789	6059.202148
3134.076172	6000.671387
3132.768555	5988.048340
3131.460938	5868.383789
3130.153320	5941.792480
3128.844727	5980.778320
3127.536133	5998.733887
3126.227539	5894.438965
3124.917969	5828.377441
3123.608398	5873.082031
3122.298828	5912.041992
3120.989258	5807.842285
3119.678711	5963.201172
3118.369141	5893.372559
3117.057617	5901.777832
3115.747070	5774.773926
3114.436523	5785.104492
3113.125000	5968.913086
3111.813477	5914.396973
3110.500977	5743.656738
3109.189453	5925.460938
3107.876953	5891.938477
3106.564453	5858.428223
3105.250977	5843.972656
3103.937500	5692.446777
3102.625000	5856.953125
3101.310547	5882.470215
3099.997070	5788.105469
3098.682617	5786.992188
3097.368164	5759.251465
3096.053711	5689.685059
3094.739258	5675.281738
3093.423828	5746.424316
3092.108398	5752.920898
3090.792969	5839.221680
3089.476563	5745.007813
3088.160156	5861.667969
3086.843750	5759.889160
3085.527344	5762.578125
3084.210938	5829.809082
3082.893555	5828.687012
3081.576172	5816.179688
3080.257813	5794.190430
3078.940430	5798.765625
3077.622070	5634.548828
3076.303711	5694.140625
3074.984375	5727.168457
3073.666016	5756.392578
3072.346680	5721.172852
3071.027344	5778.806152
3069.707031	5705.708984
3068.387695	5621.275879
3067.067383	5661.852051
3065.747070	5778.141602
3064.425781	5635.063477
3063.104492	5734.280273
3061.783203	5685.872070
3060.461914	5682.884766
3059.140625	5766.902832
3057.818359	5663.675293
3056.496094	5821.400391
3055.173828	5791.923828
3053.850586	5813.486816
3052.527344	5759.457520
3051.204102	5792.353027
3049.880859	5711.904297
3048.556641	5729.687988
3047.233398	5741.800293
3045.909180	5736.917480
3044.583984	5658.427246
3043.259766	5655.449219
3041.934570	5799.631836
3040.608398	5766.446289
3039.283203	5763.447754
3037.957031	5867.928223
3036.630859	5876.222168
3035.304688	5839.276367
3033.978516	5804.228516
3032.651367	5786.151367
3031.324219	5852.850098
3029.997070	5798.985352
3028.668945	5863.772461
3027.341797	5892.763184
3026.013672	5876.567383
3024.684570	5950.710449
3023.356445	5864.890625
3022.027344	5959.700195
3020.698242	5988.643066
3019.368164	5963.040039
3018.039063	6211.945801
3016.708984	6167.511230
3015.378906	6230.219727
3014.047852	6167.007813
3012.717773	6100.062988
3011.386719	6301.742188
3010.055664	6261.087891
3008.723633	6451.392090
3007.392578	6363.792969
3006.060547	6529.604004
3004.727539	6605.278809
3003.395508	6615.258789
3002.062500	6735.905762
3000.729492	6914.643066
2999.396484	6963.932617
2998.062500	7071.318359
2996.728516	7249.886230
2995.394531	7402.149414
2994.060547	7529.996094
2992.725586	7595.976563
2991.390625	7742.464844
2990.055664	8098.617188
2988.720703	8286.137695
2987.384766	8484.816406
2986.048828	8741.431641
2984.712891	8807.098633
2983.376953	9136.509766
2982.040039	9424.644531
2980.703125	9587.378906
2979.366211	9966.924805
2978.028320	10269.684570
2976.690430	10499.439453
2975.352539	10938.380859
2974.014648	11134.289063
2972.675781	11544.919922
2971.336914	11735.031250
2969.998047	12072.569336
2968.659180	12228.902344
2967.319336	12756.581055
2965.979492	12763.441406
2964.639648	13128.500000
2963.299805	13196.837891
2961.958984	13548.616211
2960.618164	13685.833008
2959.277344	13970.267578
2957.935547	14064.480469
2956.593750	14140.021484
2955.251953	14414.884766
2953.910156	14697.092773
2952.567383	14819.024414
2951.225586	14698.844727
2949.881836	14897.055664
2948.539063	15190.116211
2947.195313	15019.686523
2945.852539	15174.923828
2944.507813	15337.541992
2943.164063	15063.028320
2941.819336	15086.140625
2940.474609	15161.299805
2939.129883	15104.455078
2937.784180	15014.179688
2936.439453	14957.383789
2935.093750	14751.993164
2933.747070	14645.121094
2932.401367	14389.730469
2931.054688	14435.210938
2929.708008	14540.073242
2928.360352	14414.762695
2927.013672	14135.490234
2925.666016	14104.918945
2924.318359	14065.085938
2922.969727	14062.355469
2921.621094	14039.231445
2920.272461	13945.672852
2918.923828	13874.390625
2917.575195	13903.198242
2916.225586	13915.320313
2914.875977	14064.506836
2913.525391	14109.925781
2912.175781	14001.645508
2910.825195	14108.148438
2909.474609	13918.471680
2908.123047	14333.981445
2906.772461	14283.092773
2905.420898	14457.897461
2904.069336	14436.593750
2902.716797	14855.375977
2901.364258	14883.916992
2900.011719	15003.015625
2898.659180	15353.065430
2897.305664	15381.491211
2895.953125	15441.308594
2894.599609	15813.229492
2893.245117	15760.298828
2891.891602	16102.472656
2890.537109	16056.887695
2889.181641	15976.255859
2887.827148	15987.910156
2886.471680	15923.923828
2885.116211	15821.230469
2883.760742	15770.208008
2882.405273	15772.671875
2881.048828	15375.132813
2879.692383	14916.930664
2878.334961	14862.435547
2876.978516	14406.352539
2875.621094	13812.303711
2874.263672	13724.906250
2872.905273	13302.448242
2871.547852	12850.701172
2870.189453	12483.791016
2868.830078	12312.072266
2867.471680	11825.825195
2866.112305	11670.854492
2864.752930	11440.543945
2863.393555	11055.875000
2862.033203	10891.951172
2860.672852	10391.747070
2859.312500	10237.204102
2857.952148	10097.417969
2856.590820	9915.437500
2855.229492	9799.642578
2853.868164	9579.230469
2852.505859	9441.515625
2851.144531	9052.398438
2849.782227	9140.553711
2848.418945	9118.590820
2847.056641	8724.258789
2845.693359	8852.773438
2844.330078	8744.696289
2842.965820	8656.827148
2841.602539	8673.468750
2840.238281	8369.402344
2838.874023	8310.971680
2837.508789	8098.686523
2836.143555	8106.265137
2834.778320	8307.942383
2833.413086	7945.655273
2832.046875	7828.788086
2830.681641	7785.169434
2829.314453	7774.502441
2827.948242	7835.184570
2826.581055	7539.185059
2825.214844	7570.630371
2823.846680	7510.647949
2822.479492	7324.560059
2821.111328	7153.165527
2819.743164	7343.628906
2818.375000	7086.433594
2817.005859	7247.610352
2815.636719	7246.195801
2814.267578	7118.801270
2812.898438	7022.488281
2811.528320	6995.565918
2810.158203	6966.829102
2808.788086	6947.225098
2807.416992	6931.276367
2806.046875	6758.498535
2804.675781	6950.449219
2803.303711	6781.380371
2801.932617	6760.007324
2800.560547	6753.219727
2799.188477	6607.972168
2797.815430	6664.969727
2796.443359	6700.091309
2795.070313	6565.862305
2793.696289	6606.450195
2792.323242	6441.349609
2790.949219	6467.386719
2789.575195	6613.493652
2788.201172	6515.791992
2786.826172	6489.056641
2785.451172	6684.167480
2784.076172	6611.959961
2782.701172	6521.604004
2781.325195	6565.760254
2779.949219	6453.645020
2778.573242	6643.120605
2777.196289	6452.937500
2775.819336	6602.390137
2774.442383	6486.723145
2773.065430	6391.067383
2771.687500	6418.853516
2770.309570	6481.102539
2768.931641	6492.532715
2767.553711	6522.095215
2766.174805	6479.111816
2764.795898	6588.437012
2763.416992	6498.327637
2762.037109	6489.806641
2760.657227	6548.330078
2759.277344	6456.469238
2757.897461	6542.144043
2756.516602	6548.106934
2755.135742	6450.867188
2753.754883	6445.983887
2752.373047	6500.825684
2750.991211	6523.075195
2749.609375	6552.552246
2748.227539	6563.930176
2746.844727	6515.626465
2745.461914	6528.813965
2744.079102	6511.266113
2742.696289	6479.265625
2741.312500	6432.821777
2739.928711	6433.368164
2738.544922	6470.038574
2737.160156	6447.099609
2735.775391	6306.808594
2734.390625	6374.169922
2733.005859	6425.260742
2731.620117	6460.091309
2730.234375	6377.638184
2728.848633	6450.343262
2727.461914	6384.154785
2726.076172	6352.250488
2724.689453	6176.140137
2723.301758	6311.909180
2721.915039	6314.275391
2720.527344	6287.813477
2719.138672	6246.951172
2717.750977	6164.682617
2716.362305	6113.056152
2714.973633	6113.656738
2713.584961	6197.052246
2712.195313	6159.845215
2710.806641	6185.624512
2709.416016	6036.905762
2708.026367	6069.892090
2706.635742	6047.122559
2705.245117	6013.575684
2703.854492	6015.989746
2702.462891	6029.185059
2701.072266	6040.578613
2699.680664	5956.759277
2698.288086	6102.862793
2696.896484	6049.590332
2695.503906	6003.519043
2694.110352	6061.573730
2692.717773	5895.279297
2691.324219	5958.713867
2689.930664	5997.009277
2688.537109	6035.289063
2687.142578	5930.097656
2685.748047	5808.812012
2684.353516	6012.014160
2682.958984	5948.107910
2681.563477	6020.401855
2680.167969	6044.298828
2678.771484	5921.316895
2677.375977	5936.269531
2675.979492	5913.617676
2674.583008	5892.764648
2673.185547	5880.867676
2671.789063	5910.129883
2670.391602	5858.876465
2668.993164	5762.927246
2667.595703	5838.688965
2666.197266	5791.054688
2664.798828	5832.816895
2663.400391	6008.603516
2662.000977	5810.866699
2660.601563	5852.599609
2659.202148	5771.070801
2657.801758	5811.008789
2656.401367	5825.934082
2655.000977	5935.463867
2653.600586	5816.501953
2652.199219	5893.870605
2650.797852	5876.653809
2649.396484	5996.788086
2647.995117	5847.589355
2646.592773	5805.429199
2645.190430	5813.199219
2643.787109	5820.965820
2642.384766	5814.473633
2640.981445	5897.062988
2639.578125	5810.401855
2638.173828	5841.313477
2636.769531	5795.648926
2635.365234	5789.166504
2633.960938	5873.458008
2632.555664	5890.095703
2631.150391	5760.836914
2629.745117	5782.825684
2628.339844	5722.998047
2626.933594	5691.642578
2625.527344	5701.187012
2624.121094	5719.614258
2622.713867	5762.912109
2621.306641	5754.668945
2619.899414	5749.981934
2618.492188	5795.023438
2617.083984	5927.052734
2615.675781	5799.838867
2614.266602	5660.250488
2612.858398	5808.198730
2611.449219	5798.181641
2610.040039	5779.298828
2608.629883	5790.573242
2607.220703	5828.440918
2605.810547	5777.651367
2604.399414	5650.665039
2602.989258	5729.295898
2601.578125	5713.990723
2600.166992	5776.634277
2598.754883	5704.650879
2597.343750	5650.402832
2595.930664	5773.213867
2594.518555	5697.732910
2593.106445	5654.135254
2591.693359	5683.097168
2590.280273	5630.674316
2588.866211	5668.472168
2587.452148	5723.937988
2586.038086	5793.524414
2584.624023	5700.465820
2583.208984	5699.339355
2581.794922	5699.980469
2580.378906	5670.589355
2578.963867	5833.724609
2577.547852	5733.684570
2576.131836	5729.020508
2574.715820	5794.963379
2573.298828	5735.580078
2571.881836	5826.197266
2570.464844	5784.471191
2569.047852	5829.185059
2567.629883	5671.089844
2566.211914	5772.225586
2564.793945	5693.525391
2563.375000	5858.060547
2561.956055	5805.803711
2560.537109	5799.370117
2559.118164	5754.190430
2557.698242	5839.339355
2556.278320	5702.616699
2554.857422	5798.303223
2553.437500	5675.721680
2552.016602	5773.134277
2550.595703	5733.289063
2549.173828	5834.168945
2547.752930	5739.812500
2546.330078	5803.728516
2544.908203	5830.705078
2543.485352	5945.543945
2542.063477	5884.624512
2540.639648	5967.785156
2539.216797	5722.458984
2537.792969	5756.447754
2536.369141	5783.399414
2534.945313	5713.793457
2533.520508	5844.290039
2532.095703	5906.301270
2530.670898	5940.218262
2529.245117	5810.999512
2527.819336	5797.572754
2526.393555	5813.957031
2524.967773	5746.192383
2523.541016	5920.314453
2522.114258	5919.141113
2520.687500	5765.551758
2519.260742	5844.980957
2517.833008	5857.832031
2516.405273	5774.379395
2514.976563	5899.272461
2513.547852	5824.595215
2512.119141	5800.692383
2510.690430	5817.037109
2509.261719	5625.227539
2507.832031	5778.005371
2506.402344	5815.325195
2504.971680	5859.622070
2503.541016	5849.720703
2502.110352	5789.148438
2500.679688	5873.605957
2499.248047	5816.545410
2497.816406	5782.210449
2496.384766	5751.380371
2494.953125	5771.187012
2493.520508	5721.172852
2492.087891	5934.669434
2490.655273	5825.324219
2489.221680	5873.007324
2487.788086	5966.014160
2486.354492	5848.008789
2484.919922	5787.577148
2483.485352	5779.456055
2482.050781	5909.000000
2480.616211	5881.693359
2479.180664	5915.362305
2477.745117	5792.281250
2476.309570	5768.495117
2474.873047	5897.910645
2473.437500	5788.829590
2472.000000	5761.577148
2470.563477	5770.871094
2469.125977	5877.569336
2467.688477	5867.705566
2466.250977	5859.584473
2464.812500	5875.803711
2463.374023	5886.802246
2461.935547	5864.779297
2460.497070	5844.501953
2459.057617	5883.291504
2457.618164	5802.234375
2456.177734	5943.459473
2454.738281	5857.214355
2453.297852	5824.807617
2451.857422	5842.737305
2450.416016	5872.804199
2448.974609	5876.839844
2447.533203	5946.774902
2446.091797	5902.244141
2444.649414	5836.927246
2443.207031	5813.233887
2441.764648	5812.077148
2440.321289	5904.477051
2438.877930	5776.852051
2437.434570	6000.841797
2435.990234	5933.850098
2434.546875	5975.947754
2433.101563	5839.754883
2431.657227	5937.228516
2430.211914	5913.554688
2428.766602	5853.564453
2427.321289	5862.775391
2425.875977	5987.831055
2424.429688	5893.286133
2422.983398	5992.358887
2421.536133	6001.533691
2420.089844	5929.501465
2418.642578	5969.776855
2417.194336	5904.687500
2415.747070	5898.331055
2414.298828	5950.671387
2412.849609	5871.815918
2411.401367	5755.027344
2409.952148	5978.169434
2408.502930	5870.030273
2407.052734	5929.221191
2405.603516	5936.660156
2404.152344	5985.470215
2402.703125	5946.357910
2401.251953	5795.250488
2399.800781	6109.384277
2398.349609	5954.858398
2396.898438	6081.114258
2395.445313	5949.039063
2393.994141	6021.877930
2392.541016	6046.493652
2391.087891	6019.474609
2389.634766	6078.490723
2388.181641	5939.666016
2386.728516	5828.413086
2385.275391	5935.575684
2383.820313	5889.693848
2382.365234	5960.706543
2380.910156	5995.603516
2379.455078	6006.433105
2378.000000	5979.467773
2376.544922	6034.947754
2375.089844	5911.831543
2373.632813	6066.872070
2372.175781	5993.572266
2370.718750	5885.981445
2369.261719	6042.648926
2367.804688	5904.213867
2366.347656	5923.614258
2364.888672	6033.883789
2363.429688	6039.535156
2361.972656	5830.937500
2360.513672	6069.680176
2359.054688	5994.795898
2357.593750	5964.477539
2356.134766	5922.182617
2354.673828	5989.489258
2353.214844	6001.987305
2351.753906	5975.113281
2350.292969	5944.827637
2348.832031	5888.890137
2347.369141	5930.476074
2345.908203	5968.625000
2344.445313	5890.486816
2342.984375	5995.299316
2341.521484	5951.370117
2340.058594	6056.127441
2338.593750	6024.163086
2337.130859	5992.210938
2335.667969	5919.283691
2334.203125	5933.466309
2332.738281	5852.043457
2331.273438	6011.310059
2329.808594	6025.464844
2328.343750	6002.079590
2326.878906	6002.583496
2325.412109	5893.939941
2323.945313	5921.746094
2322.478516	6152.404785
2321.011719	5871.651367
2319.544922	5810.833496
2318.078125	5986.855957
2316.611328	5965.216309
2315.142578	5960.615234
2313.673828	6005.394043
2312.205078	5915.668457
2310.736328	6162.976563
2309.267578	5964.348145
2307.798828	6060.128418
2306.328125	5904.124023
2304.859375	5962.463379
2303.388672	5935.763672
2301.917969	5934.573730
2300.447266	5865.398926
2298.974609	5971.277832
2297.503906	5934.402832
2296.031250	6001.156738
2294.560547	5898.057617
2293.087891	5944.416504
2291.615234	5973.780762
2290.142578	5846.986816
2288.667969	6134.286621
2287.195313	5934.558594
2285.720703	6077.546387
2284.246094	5989.837402
2282.773438	6037.806152
2281.296875	5992.519531
2279.822266	5913.353516
2278.347656	5885.054199
2276.871094	6041.431152
2275.396484	6057.156738
2273.919922	5993.281738
2272.443359	6044.566406
2270.966797	6061.973633
2269.488281	5933.820801
2268.011719	5946.166016
2266.533203	5985.575195
2265.056641	6068.945801
2263.578125	5988.244141
2262.099609	6005.639648
2260.619141	6085.574219
2259.140625	6037.028809
2257.662109	5946.258789
2256.181641	5995.746582
2254.701172	6073.928711
2253.220703	6050.754395
2251.740234	5951.610840
2250.259766	6012.873047
2248.777344	5993.099121
2247.296875	6123.510254
2245.814453	6015.995605
2244.332031	6053.580078
2242.849609	6057.421875
2241.367188	6044.401855
2239.884766	6144.327637
2238.400391	6053.768066
2236.917969	6003.685547
2235.433594	6039.540527
2233.949219	6028.219727
2232.464844	6109.522461
2230.978516	6000.539551
2229.494141	6127.263672
2228.009766	6058.711914
2226.523438	5953.168945
2225.037109	6130.294434
2223.550781	6050.008789
2222.064453	6164.822754
2220.576172	6010.584961
2219.089844	6116.955078
2217.601563	6127.487793
2216.115234	6117.853027
2214.626953	6316.532227
2213.138672	6184.252441
2211.648438	6099.044434
2210.160156	6128.036133
2208.669922	6131.837402
2207.181641	6122.211426
2205.691406	6147.824219
2204.201172	6077.805664
2202.710938	5999.428711
2201.218750	6170.938965
2199.728516	6285.376953
2198.236328	6118.165527
2196.744141	6075.035645
2195.251953	6052.029297
2193.759766	6147.970703
2192.267578	6091.460938
2190.775391	6202.425781
2189.281250	6109.095215
2187.787109	6218.336914
2186.294922	6128.387207
2184.800781	6240.926758
2183.304688	6137.625000
2181.810547	6158.129395
2180.316406	6170.264648
2178.820313	6165.676270
2177.324219	6196.190430
2175.828125	6121.409668
2174.332031	6220.423340
2172.835938	6150.678711
2171.337891	6234.614258
2169.841797	6154.875000
2168.343750	6217.072266
2166.845703	6195.788086
2165.347656	6259.619629
2163.849609	6241.671387
2162.351563	6355.511230
2160.851563	6272.506836
2159.353516	6246.228516
2157.853516	6208.290527
2156.353516	6192.036133
2154.853516	6197.451172
2153.353516	6184.536621
2151.851563	6261.577637
2150.351563	6353.576172
2148.849609	6235.736328
2147.347656	6362.662109
2145.845703	6249.860840
2144.343750	6220.308105
2142.839844	6205.741211
2141.337891	6317.598145
2139.833984	6253.124512
2138.330078	6358.274902
2136.826172	6302.130859
2135.322266	6244.346680
2133.818359	6450.798828
2132.314453	6321.567871
2130.808594	6325.272461
2129.302734	6390.421875
2127.796875	6216.450195
2126.291016	6309.814941
2124.785156	6267.045898
2123.279297	6282.371582
2121.771484	6315.939941
2120.263672	6366.081543
2118.757813	6243.732910
2117.250000	6250.759766
2115.740234	6320.774902
2114.232422	6355.957520
2112.724609	6303.303223
2111.214844	6398.114746
2109.705078	6431.603027
2108.195313	6334.251953
2106.685547	6410.786133
2105.175781	6328.375977
2103.664063	6373.434570
2102.154297	6400.273438
2100.642578	6448.606934
2099.130859	6344.752930
2097.619141	6371.579590
2096.107422	6366.982422
2094.595703	6449.995117
2093.082031	6290.032715
2091.570313	6473.818359
2090.056641	6436.162598
2088.542969	6301.073730
2087.029297	6455.020996
2085.513672	6442.155762
2084.000000	6355.015625
2082.484375	6355.377441
2080.968750	6416.788574
2079.455078	6351.150879
2077.937500	6460.367188
2076.421875	6454.109863
2074.906250	6517.098145
2073.388672	6454.788574
2071.873047	6405.687988
2070.355469	6452.170410
2068.837891	6536.521484
2067.320313	6502.255371
2065.800781	6374.145020
2064.283203	6414.008789
2062.763672	6483.483887
2061.244141	6526.600586
2059.724609	6475.916504
2058.205078	6398.933594
2056.685547	6456.841309
2055.164063	6577.208496
2053.644531	6544.637695
2052.123047	6589.330566
2050.601563	6476.248047
2049.080078	6621.156738
2047.558594	6432.551758
2046.035156	6473.945313
2044.513672	6559.654297
2042.990234	6487.731445
2041.466797	6479.848145
2039.943359	6565.502930
2038.419922	6450.965332
2036.896484	6500.503418
2035.371094	6615.619629
2033.847656	6555.248535
2032.322266	6614.570313
2030.796875	6626.337402
2029.271484	6638.099121
2027.744141	6636.749512
2026.218750	6560.053711
2024.691406	6542.343262
2023.164063	6631.064453
2021.636719	6582.244141
2020.109375	6523.623047
2018.582031	6532.113770
2017.054688	6489.885742
2015.525391	6518.006836
2013.996094	6582.092773
2012.468750	6677.216797
2010.939453	6554.895020
2009.408203	6602.590332
2007.878906	6738.500000
2006.347656	6614.605957
2004.818359	6662.258789
2003.287109	6670.700195
2001.755859	6654.648438
2000.224609	6687.572266
1998.691406	6731.905762
1997.160156	6598.371582
1995.626953	6753.633789
1994.093750	6688.650391
1992.560547	6737.837891
1991.027344	6532.676270
1989.494141	6676.414063
1987.960938	6482.754883
1986.425781	6621.555664
1984.890625	6719.574707
1983.355469	6721.462891
1981.820313	6806.394043
1980.285156	6684.535645
1978.750000	6629.460449
1977.212891	6727.375977
1975.675781	6667.432617
1974.138672	6614.020020
1972.601563	6796.447266
1971.064453	6679.615234
1969.527344	6603.472656
1967.988281	6793.915527
1966.451172	6729.154785
1964.912109	6794.394043
1963.373047	6716.664063
1961.833984	6848.462891
1960.292969	6769.128906
1958.753906	6717.423828
1957.212891	6875.109375
1955.671875	6755.250000
1954.130859	6667.886719
1952.589844	6788.177734
1951.048828	6730.032715
1949.505859	6757.843262
1947.964844	6863.452148
1946.421875	6751.843262
1944.878906	6844.446289
1943.335938	6674.564453
1941.792969	6817.355469
1940.248047	6762.523926
1938.705078	6775.713867
1937.160156	6767.854980
1935.615234	6816.642578
1934.070313	6842.756836
1932.525391	6813.857910
1930.978516	6828.639648
1929.433594	6767.412598
1927.886719	6720.761230
1926.339844	6829.303223
1924.792969	6918.407227
1923.246094	6881.446777
1921.699219	6876.809570
1920.150391	6828.566406
1918.601563	6935.358398
1917.052734	6893.580078
1915.503906	6837.291016
1913.955078	6716.474609
1912.406250	6860.310059
1910.855469	6736.311035
1909.306641	6802.669434
1907.755859	6833.526855
1906.205078	6695.099609
1904.654297	6898.425781
1903.101563	6901.848633
1901.550781	6976.159180
1899.998047	6908.688965
1898.447266	6841.246094
1896.894531	6799.592773
1895.339844	6962.400879
1893.787109	6790.371094
1892.234375	6880.702148
1890.679688	6958.125488
1889.125000	6889.144531
1887.570313	6968.141602
1886.015625	6944.205078
1884.460938	6872.052734
1882.906250	6976.718262
1881.349609	6962.434570
1879.792969	6837.307129
1878.236328	6906.578125
1876.679688	6932.462402
1875.123047	6908.564941
1873.566406	6857.388184
1872.007813	6875.241211
1870.449219	7016.635742
1868.890625	7045.677734
1867.332031	6922.338379
1865.773438	6986.665039
1864.214844	7058.980957
1862.654297	6916.479004
1861.093750	7105.765625
1859.533203	6963.312012
1857.972656	7005.135254
1856.412109	7083.777344
1854.851563	6928.604492
1853.289063	6936.788574
1851.728516	6996.188477
1850.166016	7053.962402
1848.603516	6918.120605
1847.039063	7060.666016
1845.476563	6960.061523
1843.914063	6921.857422
1842.349609	6941.218750
1840.785156	7083.640625
1839.220703	7072.598633
1837.656250	6992.862305
1836.091797	7127.197754
1834.525391	7133.719238
1832.958984	7073.178223
1831.392578	7231.358398
1829.826172	7137.305176
1828.259766	7041.694824
1826.693359	7072.155273
1825.125000	7148.858398
1823.558594	7051.708008
1821.990234	7112.439453
1820.421875	7098.225586
1818.853516	7136.609863
1817.285156	7131.956543
1815.714844	7138.456055
1814.144531	7084.428711
1812.576172	7138.706055
1811.005859	7052.859375
1809.433594	7158.055664
1807.863281	7225.014648
1806.292969	7239.439941
1804.720703	7229.997559
1803.148438	7139.446289
1801.576172	7234.974609
1800.003906	7173.074707
1798.431641	7049.211426
1796.857422	7120.860840
1795.285156	7114.629395
1793.710938	7151.289063
1792.136719	7222.872070
1790.562500	7311.891113
1788.986328	7269.111816
1787.412109	7227.936523
1785.835938	7089.980957
1784.259766	7104.386230
1782.683594	7169.543457
1781.107422	7123.663574
1779.531250	7274.407227
1777.955078	7122.314941
1776.376953	7149.375977
1774.798828	7089.275391
1773.220703	7270.000977
1771.642578	7154.462891
1770.064453	7286.008789
1768.484375	7194.262695
1766.906250	7278.258301
1765.326172	7091.595215
1763.746094	7230.955566
1762.166016	7126.639160
1760.583984	7144.149902
1759.003906	7150.583496
1757.421875	7321.434570
1755.841797	7168.184082
1754.259766	7182.509277
1752.675781	7081.489746
1751.093750	7149.534180
1749.511719	7154.377441
1747.927734	7271.327148
1746.343750	7284.035645
1744.759766	7176.783203
1743.175781	7251.048340
1741.591797	7161.201172
1740.005859	7287.491211
1738.421875	7213.443359
1736.835938	7251.373047
1735.250000	7286.133789
1733.664063	7245.228027
1732.076172	7283.126465
1730.490234	7218.605957
1728.902344	7369.900391
1727.316406	7250.270996
1725.728516	7333.794434
1724.138672	7256.721680
1722.550781	7255.223145
1720.962891	7393.764648
1719.373047	7345.042969
1717.783203	7425.312500
1716.193359	7492.968750
1714.603516	7370.363281
1713.013672	7408.136719
1711.421875	7343.745117
1709.830078	7444.355957
1708.240234	7439.675781
1706.648438	7351.757813
1705.054688	7452.303223
1703.462891	7428.784180
1701.871094	7475.905273
1700.277344	7391.189453
1698.683594	7375.541016
1697.089844	7505.778809
1695.496094	7388.173828
1693.902344	7449.364258
1692.306641	7477.608398
1690.710938	7585.773438
1689.117188	7441.608887
1687.521484	7562.269043
1685.923828	7336.718262
1684.328125	7513.725586
1682.730469	7424.492676
1681.134766	7534.096680
1679.537109	7374.468750
1677.939453	7388.589355
1676.341797	7518.469238
1674.742188	7404.299805
1673.144531	7413.713379
1671.544922	7435.629883
1669.945313	7474.730469
1668.345703	7581.014160
1666.746094	7498.196777
1665.144531	7699.720215
1663.544922	7501.338379
1661.943359	7584.104492
1660.341797	7491.986328
1658.740234	7613.740234
1657.138672	7401.494141
1655.535156	7582.501953
1653.933594	7708.839355
1652.330078	7604.312500
1650.726563	7531.012207
1649.123047	7576.218262
1647.519531	7393.853516
1645.914063	7552.820313
1644.310547	7420.388672
1642.705078	7647.817383
1641.099609	7577.711426
1639.494141	7512.305176
1637.888672	7481.170898
1636.281250	7355.114746
1634.675781	7471.843750
1633.068359	7492.073242
1631.460938	7594.727051
1629.853516	7611.811523
1628.244141	7499.848633
1626.636719	7543.369141
1625.027344	7544.911621
1623.417969	7571.312988
1621.808594	7401.973633
1620.199219	7512.259277
1618.589844	7537.096680
1616.978516	7602.286621
1615.369141	7679.866211
1613.757813	7515.333008
1612.146484	7696.846191
1610.535156	7606.832031
1608.921875	7616.107910
1607.310547	7617.626953
1605.697266	7523.033691
1604.083984	7541.619141
1602.470703	7657.817383
1600.857422	7668.619629
1599.242188	7684.063965
1597.628906	7728.924316
1596.013672	7653.001953
1594.398438	7572.467285
1592.783203	7587.916504
1591.167969	7662.156250
1589.550781	7877.138184
1587.935547	7620.304688
1586.318359	7652.739258
1584.701172	7736.177734
1583.083984	7712.929199
1581.466797	7671.145996
1579.847656	7630.924316
1578.230469	7709.662109
1576.611328	7791.455566
1574.992188	7683.293457
1573.373047	7709.482422
1571.751953	7791.223145
1570.132813	7595.170410
1568.511719	7715.469727
1566.890625	7820.293945
1565.269531	7784.739258
1563.648438	7709.110840
1562.027344	7721.379883
1560.404297	7695.113281
1558.783203	7698.133301
1557.160156	7790.503418
1555.537109	7707.249512
1553.912109	7881.192383
1552.289063	7708.657715
1550.664063	7764.004395
1549.041016	7705.446289
1547.416016	7728.458984
1545.791016	7717.619141
1544.164063	7799.061523
1542.539063	7795.898438
1540.912109	7786.586914
1539.287109	7818.778320
1537.660156	7708.043457
1536.033203	7813.982422
1534.404297	7761.664063
1532.777344	7758.509766
1531.148438	7830.591797
1529.519531	7779.835938
1527.890625	7672.314453
1526.261719	7799.607910
1524.632813	7836.334473
1523.001953	7836.233398
1521.373047	7794.728027
1519.742188	7813.033203
1518.111328	7625.928223
1516.478516	7670.312500
1514.847656	7654.922363
1513.214844	7795.790527
1511.583984	7849.299805
1509.951172	7784.879883
1508.318359	7671.497070
1506.683594	7737.242188
1505.050781	7810.611328
1503.416016	7862.529297
1501.783203	7798.171875
1500.148438	7895.949707
1498.511719	7901.945801
1496.876953	7940.041504
1495.242188	7942.967773
1493.605469	7956.589355
1491.968750	7953.398926
1490.332031	8020.471191
1488.695313	8151.652832
1487.058594	8374.385742
1485.419922	8505.437500
1483.781250	8537.235352
1482.142578	8680.403320
1480.503906	8838.766602
1478.865234	8858.271484
1477.226563	9108.022461
1475.585938	9366.815430
1473.945313	9486.794922
1472.304688	9439.093750
1470.664063	9758.596680
1469.023438	9642.310547
1467.380859	9681.413086
1465.740234	9549.963867
1464.097656	9560.144531
1462.455078	9553.578125
1460.812500	9525.710938
1459.167969	9374.624023
1457.525391	9250.978516
1455.880859	9098.490234
1454.236328	8961.269531
1452.591797	8859.068359
1450.947266	8718.914063
1449.302734	8562.104492
1447.656250	8581.580078
1446.009766	8406.637695
1444.363281	8369.952148
1442.716797	8474.471680
1441.070313	8226.802734
1439.421875	8384.421875
1437.775391	8265.838867
1436.126953	8241.353516
1434.478516	8239.626953
1432.830078	8119.630859
1431.179688	8296.811523
1429.531250	8299.620117
1427.880859	8256.966797
1426.230469	8243.116211
1424.580078	8368.621094
1422.929688	8218.458984
1421.279297	8271.241211
1419.626953	8169.601074
1417.974609	8351.010742
1416.322266	8359.850586
1414.669922	8418.608398
1413.017578	8227.785156
1411.363281	8257.814453
1409.710938	8425.406250
1408.056641	8396.431641
1406.402344	8347.822266
1404.748047	8382.332031
1403.091797	8297.492188
1401.437500	8270.076172
1399.781250	8248.711914
1398.125000	8245.470703
1396.468750	8295.055664
1394.812500	8337.074219
1393.154297	8351.918945
1391.498047	8344.131836
1389.839844	8295.630859
1388.181641	8189.856934
1386.523438	8402.185547
1384.865234	8343.152344
1383.205078	8219.352539
1381.544922	8317.050781
1379.884766	8533.690430
1378.224609	8431.008789
1376.564453	8293.743164
1374.904297	8243.833984
1373.242188	8344.431641
1371.580078	8193.728516
1369.919922	8274.738281
1368.255859	8385.791992
1366.593750	8260.734375
1364.931641	8260.500977
1363.267578	8324.893555
1361.603516	8318.635742
1359.939453	8474.629883
1358.275391	8303.120117
1356.611328	8203.763672
1354.945313	8323.649414
1353.279297	8281.369141
1351.613281	8222.598633
1349.947266	8294.389648
1348.281250	8417.154297
1346.615234	8308.896484
1344.947266	8322.142578
1343.279297	8210.951172
1341.611328	8146.270996
1339.943359	8306.398438
1338.275391	8268.692383
1336.605469	8352.332031
1334.935547	8227.770508
1333.267578	8323.360352
1331.597656	8288.673828
1329.925781	8188.149902
1328.255859	8202.884766
1326.583984	8322.333984
1324.912109	8372.929688
1323.240234	8312.845703
1321.568359	8372.391602
1319.896484	8449.849609
1318.224609	8371.852539
1316.550781	8293.886719
1314.876953	8341.434570
1313.203125	8418.831055
1311.529297	8440.947266
1309.853516	8358.552734
1308.179688	8323.954102
1306.503906	8220.726563
1304.828125	8454.716797
1303.152344	8363.436523
1301.474609	8461.588867
1299.798828	8222.739258
1298.121094	8432.678711
1296.443359	8381.717773
1294.765625	8441.040039
1293.087891	8412.444336
1291.410156	8418.116211
1289.730469	8365.709961
1288.050781	8483.046875
1286.371094	8478.278320
1284.691406	8449.702148
1283.011719	8522.309570
1281.332031	8571.085938
1279.650391	8396.760742
1277.968750	8442.567383
1276.287109	8541.872070
1274.605469	8444.947266
1272.921875	8557.581055
1271.240234	8484.462891
1269.556641	8512.376953
1267.873047	8595.223633
1266.189453	8637.948242
1264.505859	8621.278320
1262.820313	8580.871094
1261.134766	8586.476563
1259.451172	8419.999023
1257.765625	8628.823242
1256.078125	8540.996094
1254.392578	8731.915039
1252.705078	8618.904297
1251.019531	8471.858398
1249.332031	8588.591797
1247.642578	8595.662109
1245.955078	8485.736328
1244.267578	8478.018555
1242.578125	8550.240234
1240.888672	8480.351563
1239.199219	8345.386719
1237.509766	8417.588867
1235.818359	8369.957031
1234.128906	8313.471680
1232.437500	8273.273438
1230.746094	8209.441406
1229.054688	8290.459961
1227.363281	8203.010742
1225.669922	8185.024414
1223.976563	8162.615234
1222.283203	8097.395020
1220.589844	8110.442383
1218.896484	8316.830078
1217.203125	8151.275391
1215.507813	8055.129395
1213.812500	8202.396484
1212.117188	8081.209961
1210.421875	8106.036133
1208.726563	8236.982422
1207.029297	8135.022949
1205.332031	8103.830078
1203.636719	8087.381348
1201.937500	8042.955566
1200.240234	8070.700195
1198.542969	8023.351563
1196.843750	8042.256348
1195.144531	7887.509766
1193.445313	7952.042969
1191.746094	7865.042480
1190.046875	7867.786133
1188.345703	7929.340332
1186.644531	7836.518555
1184.943359	7699.645508
1183.242188	7853.764648
1181.541016	7827.124023
1179.837891	7721.182129
1178.136719	7693.111816
1176.433594	7716.437012
1174.730469	7705.991699
1173.027344	7779.198242
1171.322266	7796.620117
1169.619141	7815.500977
1167.914063	7658.385742
1166.208984	7664.090820
1164.503906	7765.078613
1162.796875	7783.948242
1161.091797	7795.482422
1159.384766	7749.876465
1157.677734	7762.876465
1155.970703	7781.728516
1154.263672	7718.583984
1152.554688	7806.233398
1150.847656	7683.107910
1149.138672	7722.442871
1147.429688	7890.489258
1145.720703	7900.511719
1144.009766	7784.780273
1142.300781	7882.533691
1140.589844	7746.392090
1138.878906	7800.272949
1137.167969	7792.770508
1135.455078	7938.638672
1133.744141	8061.079102
1132.031250	8073.964355
1130.318359	8153.991211
1128.605469	8333.222656
1126.892578	8532.804688
1125.179688	8456.590820
1123.464844	8648.768555
1121.750000	8690.672852
1120.035156	8662.582031
1118.320313	8888.115234
1116.605469	8938.683594
1114.888672	8999.427734
1113.171875	8888.265625
1111.455078	8956.275391
1109.738281	8818.960938
1108.021484	8859.296875
1106.302734	8855.955078
1104.585938	8843.882813
1102.867188	8955.469727
1101.148438	8861.931641
1099.429688	8817.874023
1097.708984	8842.163086
1095.990234	8911.500977
1094.269531	8813.690430
1092.548828	8919.326172
1090.828125	8804.123047
1089.105469	8938.759766
1087.384766	8874.419922
1085.662109	8779.622070
1083.939453	8976.583984
1082.216797	9055.927734
1080.492188	9013.375977
1078.769531	9012.904297
1077.044922	9016.782227
1075.320313	9110.544922
1073.595703	9089.757813
1071.871094	9261.720703
1070.146484	9167.016602
1068.419922	9211.414063
1066.693359	9431.031250
1064.966797	9287.119141
1063.240234	9344.490234
1061.513672	9432.229492
1059.785156	9443.239258
1058.056641	9144.647461
1056.328125	9476.813477
1054.599609	9305.596680
1052.871094	9349.875000
1051.140625	9222.121094
1049.412109	9145.002930
1047.681641	9101.148438
1045.951172	9091.981445
1044.218750	9064.042969
1042.488281	8810.862305
1040.755859	8621.308594
1039.023438	8678.641602
1037.291016	8414.160156
1035.558594	8396.491211
1033.826172	8309.595703
1032.091797	8100.160156
1030.357422	7974.435547
1028.623047	7851.647949
1026.888672	7779.352051
1025.154297	7662.420898
1023.417969	7634.852051
1021.681641	7602.974121
1019.945313	7604.228027
1018.208984	7491.750488
1016.472656	7341.899414
1014.734375	7336.011230
1012.998047	7341.634766
1011.259766	7183.280273
1009.521484	7171.676270
1007.783203	7198.896484
1006.042969	7254.854004
1004.302734	7270.546387
1002.564453	7224.447754
1000.824219	7155.383789
999.082031	7251.515137
997.341797	7169.550293
995.599609	7160.836914
993.859375	7120.549805
992.117188	7172.119629
990.373047	7199.276855
988.630859	7202.037598
986.886719	7296.577148
985.144531	7240.530762
983.400391	7304.917969
981.656250	7314.817871
979.910156	7363.399414
978.166016	7384.741699
976.419922	7390.319824
974.673828	7331.458496
972.927734	7269.758301
971.181641	7326.883301
969.433594	7145.005371
967.687500	7119.151367
965.939453	7014.636230
964.191406	7043.163086
962.441406	7060.239258
960.693359	7045.859375
958.943359	6961.456055
957.195313	6951.389160
955.445313	6935.611816
953.693359	6935.551270
951.943359	6959.765625
950.191406	6894.028320
948.441406	6852.583496
946.689453	6931.024902
944.935547	7117.862793
943.183594	7030.750000
941.431641	7034.944824
939.677734	6996.363281
937.923828	7198.705078
936.169922	7227.087402
934.414063	7365.172363
932.660156	7427.695801
930.904297	7332.098633
929.148438	7457.254883
927.392578	7439.992188
925.636719	7535.180664
923.878906	7441.063477
922.123047	7428.082031
920.365234	7437.864746
918.607422	7352.360840
916.849609	7401.965332
915.089844	7347.777832
913.330078	7039.217773
911.572266	7107.327637
909.812500	7054.657715
908.050781	7075.864746
906.291016	7135.401855
904.529297	7034.489258
902.767578	6923.684570
901.005859	6844.145996
899.244141	6937.729980
897.482422	6766.022461
895.718750	6734.785156
893.957031	6877.955566
892.193359	6736.138672
890.427734	6775.788086
888.664063	6628.385742
886.898438	6707.706055
885.134766	6822.399414
883.369141	6870.490234
881.603516	6846.359375
879.835938	6921.316406
878.070313	7129.259766
876.302734	7222.514648
874.535156	7219.543945
872.767578	7507.895996
871.000000	7414.375977
869.230469	7552.721680
867.460938	7756.017578
865.693359	7642.721680
863.921875	7978.699707
862.152344	8064.545410
860.382813	8126.349121
858.611328	8169.772461
856.839844	8296.452148
855.068359	8480.932617
853.296875	8405.740234
851.523438	8497.021484
849.751953	8419.037109
847.978516	8232.521484
846.205078	8258.937500
844.431641	7952.743652
842.656250	7863.668945
840.880859	7542.196289
839.107422	7530.709473
837.332031	7312.237305
835.554688	7152.986328
833.779297	7123.292480
832.001953	7116.125488
830.226563	7094.892578
828.447266	7212.919434
826.669922	7271.831055
824.892578	7436.165039
823.113281	7389.577148
821.333984	7452.627441
819.554688	7295.056152
817.775391	7228.861328
815.996094	7040.507324
814.214844	6899.975586
812.435547	6845.138184
810.654297	6624.706543
808.871094	6394.546875
807.089844	6264.094727
805.306641	6327.261230
803.525391	6288.030762
801.742188	6262.836426
799.958984	6309.140625
798.173828	6240.508301
796.390625	6267.180664
794.605469	6117.338867
792.820313	6200.045898
791.035156	6058.684082
789.248047	6124.568848
787.462891	6105.048340
785.675781	6152.702637
783.888672	6144.375977
782.101563	6113.673828
780.314453	6106.756836
778.525391	6024.345703
776.736328	5967.130371
774.947266	5967.235840
773.158203	5894.687500
771.369141	6048.464355
769.578125	5945.204590
767.789063	5867.122070
765.998047	5981.716309
764.207031	5988.794434
762.414063	5789.355469
760.623047	5862.039063
758.830078	5807.768066
757.037109	5865.076660
755.244141	5932.119141
753.451172	5820.719238
751.656250	5854.295898
749.863281	5773.611816
748.068359	5790.468262
746.271484	5733.507324
744.476563	5673.785645
742.681641	5753.293457
740.884766	5681.066895
739.087891	5699.314941
737.291016	5699.469727
735.494141	5726.049805
733.695313	5595.488281
731.896484	5738.857910
730.097656	5680.625488
728.298828	5790.562500
726.500000	5680.938965
724.701172	5647.758301
722.900391	5643.754883
721.099609	5743.884277
719.298828	5710.710449
717.496094	5706.694824
715.695313	5620.817383
713.892578	5659.825684
712.089844	5596.185547
710.287109	5651.820801
708.484375	5649.206543
706.679688	5649.365723
704.876953	5789.479980
703.072266	5610.890137
701.267578	5737.100586
699.460938	5684.616211
697.656250	5661.228516
695.849609	5654.460938
694.042969	5725.194824
692.236328	5842.939453
690.429688	5692.272949
688.621094	5809.973145
686.812500	5742.340332
685.005859	5753.532715
683.195313	5724.639648
681.386719	5950.008789
679.578125	5807.801758
677.767578	5870.073242
675.957031	5821.845703
674.146484	5864.757813
672.333984	5710.269043
670.523438	5853.925781
668.710938	5819.539063
666.898438	5727.232422
665.085938	5581.181152
663.273438	5527.571777
661.458984	5585.643555
659.644531	5500.357422
657.830078	5554.275391
656.015625	5533.779297
654.201172	5405.863281
652.384766	5479.043457
650.570313	5477.849609
648.753906	5451.881348
646.935547	5340.606445
645.119141	5409.607910
643.300781	5299.765137
641.484375	5301.360352
639.666016	5246.583984
637.847656	5347.160156
636.027344	5355.614746
634.208984	5272.007324
632.388672	5295.584473
630.568359	5352.112305
628.748047	5142.234863
626.925781	5209.752930
625.105469	5256.653809
623.283203	5218.458008
621.460938	5252.988770
619.636719	5295.733887
617.814453	5236.983887
615.990234	5185.114258
614.167969	5242.922363
612.343750	5230.814941
610.517578	5152.947754
608.693359	5247.708984
606.867188	5294.496094
605.041016	5175.588379
603.214844	5227.845703
601.388672	5247.232910
599.562500	5192.723145
597.734375	5188.853027
595.906250	5090.612305
594.078125	5163.340332
592.250000	5178.617676
590.419922	5226.691406
588.591797	5161.323242
586.761719	5098.715820
584.931641	5059.355469
583.099609	5086.927734
581.269531	5109.026367
579.437500	5221.206055
577.605469	5094.510254
575.773438	5171.168457
573.941406	5150.939941
572.107422	5185.272949
570.273438	5115.962402
568.439453	5057.587891
566.605469	5098.732422
564.771484	5105.792969
562.935547	5118.299316
561.101563	5171.661133
559.265625	5182.784668
557.427734	5219.770996
555.591797	5187.322266
553.753906	5206.599609
551.917969	5092.534180
550.080078	5216.562500
548.240234	5093.024902
546.402344	5134.059082
544.562500	5101.669434
542.724609	4979.595703
540.884766	5043.725586
539.042969	4978.772949
537.203125	5051.023438
535.361328	4855.741699
533.519531	4908.980469
531.677734	4882.116699
529.835938	4959.751465
527.994141	4730.742676
526.150391	4820.583008
524.306641	4807.321777
522.462891	4784.575195
520.619141	4938.052246
518.773438	4787.898438
516.927734	4822.075684
515.082031	4835.918945
513.236328	4757.663086
511.390625	4837.859863
509.542969	4870.641602
507.697266	4929.123047
505.849609	4987.578613
504.000000	5027.068848
502.152344	5166.627930
500.302734	5187.129395
498.455078	5286.033691
496.605469	5291.631836
494.753906	5471.548828
492.904297	5529.793457
491.052734	5619.078613
489.203125	5597.588379
487.351563	5650.365234
485.498047	5558.684082
483.646484	5457.596191
481.792969	5488.779785
479.939453	5339.188477
478.085938	5348.804688
476.232422	5158.857910
474.376953	5164.464844
472.523438	4997.553223
470.667969	4899.436523
468.812500	4833.694824
466.955078	4707.372070
465.099609	4744.041504
463.242188	4660.874512
461.384766	4579.089844
459.527344	4505.415039
457.667969	4441.189941
455.810547	4457.699707
453.951172	4502.442871
452.091797	4387.168457
450.232422	4515.249023
448.371094	4420.180664
446.511719	4471.609863
444.650391	4406.145508
442.789063	4489.787598
440.927734	4423.004883
439.064453	4503.920898
437.201172	4415.688965
435.337891	4453.630859
433.474609	4466.065918
431.611328	4499.955566
429.748047	4502.987793
427.882813	4524.787598
426.017578	4572.044922
424.152344	4544.235840
422.285156	4572.710449
420.419922	4688.239258
418.552734	4722.025391
416.685547	4684.834473
414.818359	4650.336914
412.949219	4684.108398
411.082031	4502.442871
409.212891	4469.345215
407.343750	4377.414551
405.472656	4371.100586
403.603516	4347.410645
401.732422	4156.662598
399.861328	4222.558594
397.990234	4202.923828
396.119141	4065.759033
394.246094	4158.337891
392.375000	4129.384277
390.501953	4020.355957
388.628906	4130.230957
386.753906	4127.985352
384.880859	4101.730469
383.005859	4043.480225
381.130859	4098.586914
379.253906	3956.382568
377.378906	3942.181885
375.501953	4033.248779
373.626953	4023.033447
371.748047	3899.615967
369.871094	3816.199219
367.994141	3860.618896
366.115234	3747.965820
364.236328	3822.985596
362.357422	3866.042969
360.478516	3913.071533
358.597656	3761.941895
356.716797	3802.324463
354.835938	3869.272949
352.955078	3841.839844
351.074219	3793.160889
349.191406	3788.337402
347.308594	3784.843750
345.425781	3787.989990
343.542969	3797.771973
341.658203	3754.463623
339.775391	3788.131104
337.890625	3739.537598
336.005859	3708.206543
334.119141	3741.861084
332.234375	3759.592529
330.347656	3642.127686
328.460938	3768.529541
326.574219	3688.208252
324.685547	3717.855469
322.798828	3698.493652
320.910156	3665.901123
319.021484	3580.378174
317.132813	3590.171875
315.242188	3556.301270
313.351563	3600.486816
311.460938	3562.660889
309.570313	3594.925537
307.679688	3549.186035
305.787109	3545.756836
303.896484	3472.301270
302.003906	3499.272461
300.111328	3476.045410
298.216797	3504.323730
296.322266	3479.785156
294.429688	3442.059326
292.535156	3508.591553
290.638672	3408.871826
288.744141	3418.667480
286.847656	3399.448486
284.951172	3394.739746
283.054688	3419.029785
281.158203	3431.449219
279.259766	3410.926025
277.361328	3394.363037
275.462891	3344.885498
273.564453	3302.012207
271.666016	3417.114014
269.765625	3328.183105
267.865234	3305.077393
265.964844	3212.264160
264.064453	3324.652344
262.162109	3280.524658
260.261719	3369.185547
258.359375	3331.638184
256.457031	3277.025879
254.552734	3257.906738
252.650391	3228.288818
250.746094	3245.954834
248.841797	3288.556152
246.937500	3235.325195
245.031250	3255.601807
243.126953	3224.704346
241.220703	3223.987549
239.314453	3266.545410
237.406250	3189.778564
235.500000	3190.380127
233.591797	3176.566406
231.683594	3115.592041
229.775391	3230.168945
227.865234	3129.921875
225.957031	3112.204834
224.046875	3120.675781
222.136719	3084.646240
220.226563	3097.044434
218.314453	3142.140137
216.402344	3072.125244
214.490234	3118.513672
212.578125	3035.462158
210.666016	3117.125732
208.751953	3007.977539
206.839844	3050.418701
204.925781	3022.311523
203.009766	3068.647949
201.095703	3081.019775
