#Wave		#Intensity
4001.644531	82.991890
4000.500000	-12.768678
3999.354492	39.055752
3998.209961	162.959503
3997.064453	-16.513945
3995.918945	-30.016829
3994.772461	104.903229
3993.626953	15.141069
3992.480469	-59.270149
3991.333984	82.280853
3990.187500	53.772209
3989.040039	75.459778
3987.893555	-46.653107
3986.746094	7.828025
3985.598633	195.233017
3984.451172	77.664085
3983.302734	-33.283321
3982.154297	60.534019
3981.006836	191.371979
3979.857422	91.481216
3978.708984	37.371216
3977.560547	109.522308
3976.411133	-107.645561
3975.261719	-24.537683
3974.112305	86.850060
3972.961914	-121.377197
3971.811523	53.106602
3970.662109	-41.941936
3969.511719	52.135582
3968.360352	124.487946
3967.209961	138.199829
3966.058594	4.255993
3964.907227	-40.574768
3963.755859	75.302071
3962.604492	4.494217
3961.452148	-38.042233
3960.299805	38.810532
3959.147461	-14.500888
3957.995117	21.169338
3956.841797	-60.251373
3955.689453	-111.256973
3954.536133	-1.793711
3953.382813	51.303478
3952.228516	19.893776
3951.075195	-63.477879
3949.920898	59.002743
3948.766602	-41.619980
3947.612305	31.057175
3946.458008	58.265057
3945.302734	-7.593040
3944.147461	-49.596329
3942.992188	44.762424
3941.836914	-36.132568
3940.680664	-203.499008
3939.525391	117.983078
3938.369141	63.130840
3937.211914	-8.975640
3936.055664	83.236450
3934.898438	97.635170
3933.742188	-0.308290
3932.584961	-78.755096
3931.426758	104.192238
3930.269531	-62.749062
3929.111328	-28.815752
3927.953125	119.532906
3926.794922	77.911667
3925.636719	-13.310816
3924.477539	-63.491592
3923.319336	54.614750
3922.160156	-21.411932
3921.000000	-8.988085
3919.840820	-18.115414
3918.680664	65.461792
3917.520508	6.781770
3916.360352	81.728355
3915.200195	-15.688138
3914.040039	78.642708
3912.878906	101.883034
3911.717773	-42.820065
3910.556641	25.661427
3909.394531	-45.774467
3908.233398	-11.730672
3907.071289	18.006777
3905.909180	15.474115
3904.746094	66.719810
3903.583984	74.946075
3902.420898	160.575928
3901.257813	115.056740
3900.094727	69.560982
3898.931641	-130.624588
3897.767578	159.101791
3896.603516	-19.535198
3895.439453	-2.670169
3894.275391	33.518314
3893.111328	50.376106
3891.946289	99.428345
3890.781250	11.121401
3889.616211	70.897835
3888.451172	-2.348636
3887.285156	-13.364330
3886.119141	-67.262924
3884.953125	82.543671
3883.787109	37.226032
3882.620117	32.648712
3881.454102	158.787308
3880.287109	-21.489130
3879.120117	12.506504
3877.952148	134.298447
3876.785156	20.505865
3875.617188	-63.271717
3874.449219	60.606457
3873.281250	-38.129414
3872.112305	-2.029297
3870.944336	72.562622
3869.775391	97.931419
3868.606445	163.920517
3867.436523	-63.035671
3866.267578	167.558044
3865.097656	-18.711008
3863.927734	25.872684
3862.757813	-79.118843
3861.587891	97.893288
3860.416992	-9.215097
3859.246094	18.239302
3858.075195	54.219166
3856.904297	113.661293
3855.732422	-78.751846
3854.560547	29.761705
3853.388672	87.029388
3852.216797	-60.493912
3851.044922	-13.903118
3849.872070	4.947125
3848.699219	30.180613
3847.526367	83.106735
3846.353516	-8.900180
3845.179688	101.529343
3844.005859	32.973717
3842.832031	-84.548668
3841.658203	-72.139061
3840.484375	76.516838
3839.309570	7.990633
3838.134766	26.741152
3836.959961	45.477230
3835.785156	-40.046406
3834.609375	104.177391
3833.434570	50.559673
3832.258789	107.520638
3831.082031	177.208557
3829.906250	144.838730
3828.729492	-25.657928
3827.552734	26.993891
3826.375977	35.007442
3825.199219	38.761024
3824.021484	-42.435528
3822.844727	-30.193468
3821.666992	9.630927
3820.489258	9.106980
3819.310547	-4.157636
3818.131836	135.325851
3816.954102	77.479851
3815.774414	9.042599
3814.595703	84.805923
3813.416992	118.132385
3812.237305	96.326897
3811.057617	76.639511
3809.877930	18.810381
3808.697266	7.598012
3807.516602	112.871155
3806.336914	-21.197695
3805.155273	132.717392
3803.974609	117.217590
3802.792969	8.588969
3801.612305	-11.135343
3800.430664	36.838036
3799.248047	23.440651
3798.066406	139.044540
3796.883789	-1.258108
3795.701172	23.379572
3794.518555	43.770027
3793.335938	-14.051151
3792.152344	14.768197
3790.968750	68.915825
3789.785156	40.658775
3788.601563	-15.051832
3787.417969	-20.080786
3786.233398	-33.562775
3785.048828	33.149967
3783.864258	-5.682345
3782.678711	-2.316002
3781.494141	85.413803
3780.308594	63.430557
3779.123047	102.593506
3777.937500	164.921173
3776.750977	153.439453
3775.564453	72.404121
3774.377930	84.097870
3773.191406	51.535316
3772.004883	132.711563
3770.817383	-3.060430
3769.629883	42.278881
3768.442383	72.853012
3767.254883	101.299652
3766.066406	13.985919
3764.878906	-24.917212
3763.690430	20.323551
3762.500977	-144.779617
3761.312500	-84.838417
3760.123047	-81.695282
3758.933594	64.368607
3757.744141	86.372292
3756.554688	7.498878
3755.364258	18.976753
3754.173828	36.739624
3752.983398	10.383203
3751.792969	-3.378154
3750.602539	54.228027
3749.411133	-37.218349
3748.219727	-61.491520
3747.028320	90.469551
3745.835938	-13.555045
3744.644531	-48.342728
3743.452148	51.072411
3742.259766	169.306793
3741.067383	63.199810
3739.874023	-118.325935
3738.680664	-60.927891
3737.487305	50.906166
3736.293945	-88.661629
3735.100586	35.676369
3733.906250	-28.484419
3732.711914	89.492065
3731.517578	4.390518
3730.323242	19.754425
3729.127930	-90.433128
3727.932617	29.510836
3726.737305	-51.381428
3725.541992	39.211895
3724.345703	161.119064
3723.150391	84.392647
3721.954102	-71.733246
3720.757813	35.464462
3719.560547	71.580124
3718.364258	126.470078
3717.166992	83.175018
3715.969727	-62.424709
3714.771484	126.027420
3713.574219	-40.420780
3712.375977	91.590660
3711.177734	85.839104
3709.979492	-34.651493
3708.780273	-44.571999
3707.582031	76.870125
3706.382813	50.231544
3705.183594	17.337992
3703.983398	-3.050754
3702.784180	3.645517
3701.583984	-139.669434
3700.383789	-126.724510
3699.182617	65.300087
3697.982422	-17.597874
3696.781250	-127.539116
3695.580078	78.914482
3694.378906	-110.101768
3693.177734	-128.451569
3691.975586	67.452888
3690.773438	-11.259308
3689.571289	-2.617890
3688.369141	57.985115
3687.166016	4.229290
3685.962891	131.290634
3684.759766	-88.707764
3683.556641	21.682425
3682.352539	26.089962
3681.149414	-17.278160
3679.945313	72.242767
3678.740234	97.365669
3677.536133	76.808327
3676.331055	91.524956
3675.126953	50.208469
3673.920898	-59.557812
3672.715820	-26.187645
3671.510742	-135.918015
3670.304688	177.316772
3669.098633	15.748524
3667.891602	-110.538528
3666.685547	-116.608200
3665.478516	-6.672426
3664.271484	-14.850472
3663.064453	30.808413
3661.857422	-20.872458
3660.649414	45.452366
3659.441406	-74.532166
3658.233398	130.405472
3657.025391	10.431368
3655.816406	78.732246
3654.607422	14.635188
3653.398438	-37.040398
3652.189453	8.462885
3650.980469	-115.555573
3649.770508	-59.739632
3648.560547	22.908220
3647.350586	-24.632931
3646.139648	76.549179
3644.929688	55.845078
3643.718750	181.734009
3642.507813	101.135391
3641.295898	51.516659
3640.084961	107.150703
3638.873047	14.207158
3637.661133	92.500969
3636.449219	57.325687
3635.236328	73.705330
3634.023438	32.345509
3632.810547	221.852264
3631.597656	118.639717
3630.384766	64.909142
3629.170898	101.833946
3627.957031	60.468884
3626.743164	103.544022
3625.529297	-18.118309
3624.314453	210.209015
3623.099609	125.603706
3621.884766	45.138607
3620.669922	20.246416
3619.454102	77.635658
3618.239258	297.470062
3617.023438	307.479156
3615.806641	202.348969
3614.590820	185.637848
3613.374023	236.743179
3612.157227	213.854095
3610.940430	207.401321
3609.723633	276.940125
3608.505859	190.376740
3607.288086	190.071671
3606.070313	255.449814
3604.852539	195.602066
3603.633789	308.137299
3602.415039	311.889648
3601.196289	434.605804
3599.977539	175.812668
3598.758789	265.690033
3597.539063	76.715881
3596.319336	82.528580
3595.099609	276.870392
3593.878906	464.985931
3592.659180	271.998047
3591.438477	345.336761
3590.217773	318.302063
3588.996094	434.589203
3587.775391	378.879730
3586.553711	331.372131
3585.332031	410.744385
3584.109375	379.604767
3582.887695	477.337982
3581.665039	292.806580
3580.442383	286.229553
3579.219727	500.437531
3577.996094	454.979248
3576.773438	338.010406
3575.549805	417.224579
3574.325195	443.291748
3573.101563	532.660583
3571.876953	601.570618
3570.652344	405.037628
3569.427734	539.258545
3568.203125	457.092773
3566.977539	570.840027
3565.752930	582.536377
3564.526367	632.977783
3563.300781	589.588135
3562.075195	511.549042
3560.848633	539.541016
3559.622070	526.755188
3558.395508	630.126282
3557.167969	568.422729
3555.940430	571.924988
3554.712891	585.605896
3553.485352	652.222778
3552.257813	671.985718
3551.029297	632.707520
3549.800781	603.617004
3548.572266	708.828491
3547.343750	612.595459
3546.114258	640.468140
3544.884766	761.874451
3543.655273	592.480957
3542.425781	663.024658
3541.195313	621.753418
3539.965820	773.544128
3538.734375	687.564758
3537.503906	703.182678
3536.273438	771.597412
3535.041992	742.516907
3533.810547	800.743164
3532.579102	838.647339
3531.346680	868.417297
3530.115234	855.566223
3528.882813	743.313904
3527.650391	906.945923
3526.416992	790.666077
3525.184570	721.062378
3523.951172	884.601685
3522.717773	849.457642
3521.483398	796.087646
3520.250000	773.127441
3519.015625	766.378357
3517.781250	820.387634
3516.545898	815.654053
3515.311523	914.170410
3514.076172	984.310242
3512.840820	937.049500
3511.605469	976.808167
3510.369141	891.128479
3509.133789	1044.142456
3507.897461	905.905701
3506.660156	1012.354858
3505.423828	1013.652588
3504.186523	982.611450
3502.949219	1066.759155
3501.711914	1078.145386
3500.474609	1061.248901
3499.236328	1145.333130
3497.998047	1084.008667
3496.759766	1164.019897
3495.521484	1124.917358
3494.282227	1174.620117
3493.042969	1151.670776
3491.803711	1132.764771
3490.564453	1079.580444
3489.324219	1060.695068
3488.084961	1182.944824
3486.844727	1155.985840
3485.603516	1302.354004
3484.363281	1154.487671
3483.122070	1252.453003
3481.880859	1163.063599
3480.639648	1196.550659
3479.397461	1312.575439
3478.156250	1291.671753
3476.914063	1317.067139
3475.671875	1284.097900
3474.428711	1335.640869
3473.186523	1119.633911
3471.943359	1289.848755
3470.700195	1367.505737
3469.456055	1330.541382
3468.212891	1418.214355
3466.968750	1445.565674
3465.724609	1460.852783
3464.479492	1450.019043
3463.235352	1350.818481
3461.990234	1303.866821
3460.745117	1708.675781
3459.499023	1476.999878
3458.253906	1347.770386
3457.007813	1491.488281
3455.761719	1542.867310
3454.515625	1379.604126
3453.268555	1443.020996
3452.021484	1674.843262
3450.775391	1623.917236
3449.527344	1476.802612
3448.280273	1476.035522
3447.032227	1419.169922
3445.784180	1606.717651
3444.536133	1475.749634
3443.287109	1567.102661
3442.039063	1560.323853
3440.790039	1601.588989
3439.541016	1580.801270
3438.291016	1598.040405
3437.041992	1537.254883
3435.791992	1694.512817
3434.541992	1657.734375
3433.291016	1481.012695
3432.041016	1638.200073
3430.790039	1653.425659
3429.539063	1498.794189
3428.287109	1589.965332
3427.036133	1583.227295
3425.784180	1694.325073
3424.532227	1753.468262
3423.280273	1571.028564
3422.027344	1588.261597
3420.774414	1753.168213
3419.521484	1774.357178
3418.268555	1683.827515
3417.014648	1619.262939
3415.761719	1746.163574
3414.507813	1571.962280
3413.252930	1766.603149
3411.999023	1803.728271
3410.744141	1673.461670
3409.489258	1696.650635
3408.234375	1855.281006
3406.978516	1635.471313
3405.723633	1845.829224
3404.467773	1638.055786
3403.210938	1738.869385
3401.955078	1732.189941
3400.698242	1757.349976
3399.441406	1681.053223
3398.184570	1662.466187
3396.927734	1657.809082
3395.669922	1714.787964
3394.412109	1825.417603
3393.154297	1852.540161
3391.896484	1728.647095
3390.637695	1686.254272
3389.378906	1824.627075
3388.120117	1617.415405
3386.861328	1870.913696
3385.601563	1983.378296
3384.341797	1748.479126
3383.082031	1833.151245
3381.822266	1753.127319
3380.561523	1794.135132
3379.300781	1799.433716
3378.040039	1749.215210
3376.779297	1812.020508
3375.517578	1690.470947
3374.256836	1723.546631
3372.995117	1925.025879
3371.732422	1706.469238
3370.470703	1650.408569
3369.208008	1895.363892
3367.945313	1764.063110
3366.682617	1824.823730
3365.418945	1750.987183
3364.155273	1687.076782
3362.891602	1739.916260
3361.627930	1672.085327
3360.363281	1760.512207
3359.099609	1876.591797
3357.834961	1707.968262
3356.569336	1810.186279
3355.304688	1748.356323
3354.039063	1714.213501
3352.773438	1778.854492
3351.507813	1689.429565
3350.241211	1686.923706
3348.975586	1727.856445
3347.708984	1893.129150
3346.442383	1665.626709
3345.174805	1643.414551
3343.907227	1623.187866
3342.639648	1703.562866
3341.372070	1701.089966
3340.104492	1811.003052
3338.835938	1729.670776
3337.567383	1711.441284
3336.298828	1657.755493
3335.029297	1692.747437
3333.760742	1631.216431
3332.491211	1817.848877
3331.221680	1740.574463
3329.951172	1608.213135
3328.681641	1666.824463
3327.411133	1656.543213
3326.139648	1724.969116
3324.869141	1761.900391
3323.597656	1708.353760
3322.327148	1562.414551
3321.054688	1821.523560
3319.783203	1644.178101
3318.510742	1600.539673
3317.238281	1765.196167
3315.965820	1603.692261
3314.693359	1825.255127
3313.419922	1746.286987
3312.146484	1724.291748
3310.873047	1663.049927
3309.599609	1692.116455
3308.325195	1685.855591
3307.050781	1665.869995
3305.776367	1647.858032
3304.501953	1696.535767
3303.226563	1731.474609
3301.951172	1678.188110
3300.675781	1687.647217
3299.400391	1548.176025
3298.124023	1698.731934
3296.847656	1637.676392
3295.571289	1709.827393
3294.294922	1611.598877
3293.017578	1589.764648
3291.740234	1515.094849
3290.462891	1659.643188
3289.185547	1616.304810
3287.907227	1406.704468
3286.628906	1789.825317
3285.350586	1576.370728
3284.072266	1544.831665
3282.792969	1523.083008
3281.513672	1681.152954
3280.234375	1555.832764
3278.955078	1493.082764
3277.674805	1621.783691
3276.394531	1457.502563
3275.114258	1445.588135
3273.833984	1478.583130
3272.552734	1443.257202
3271.272461	1439.173462
3269.990234	1546.305176
3268.708984	1555.867065
3267.426758	1542.026855
3266.145508	1405.350586
3264.862305	1547.518921
3263.580078	1553.195313
3262.296875	1611.491699
3261.014648	1566.503784
3259.731445	1636.474609
3258.447266	1324.671265
3257.164063	1497.880493
3255.879883	1443.232544
3254.595703	1435.329102
3253.310547	1252.272949
3252.026367	1353.386719
3250.741211	1378.592896
3249.456055	1394.068359
3248.169922	1460.106079
3246.884766	1378.352051
3245.598633	1424.937134
3244.312500	1331.568726
3243.025391	1214.920898
3241.739258	1385.870850
3240.452148	1389.703247
3239.165039	1193.498413
3237.876953	1300.289673
3236.589844	1342.979126
3235.301758	1156.614990
3234.013672	1220.672363
3232.724609	1193.516113
3231.436523	1220.693359
3230.147461	1100.458618
3228.857422	1088.868652
3227.568359	1061.777710
3226.278320	1149.069580
3224.989258	1059.968994
3223.698242	1092.981812
3222.408203	1184.106812
3221.117188	1188.038086
3219.826172	1190.036255
3218.535156	1015.843079
3217.244141	1124.354858
3215.952148	1207.667969
3214.660156	1109.054321
3213.368164	954.375122
3212.076172	960.312988
3210.783203	1182.860229
3209.490234	1059.207764
3208.197266	1074.802124
3206.903320	842.984863
3205.610352	930.127258
3204.316406	814.364319
3203.022461	872.510864
3201.727539	836.000610
3200.432617	1008.060913
3199.137695	892.390503
3197.842773	844.329163
3196.547852	709.443909
3195.251953	939.301575
3193.956055	812.175598
3192.660156	883.771423
3191.363281	745.142456
3190.067383	743.465088
3188.770508	761.070251
3187.472656	632.194214
3186.175781	784.711182
3184.877930	817.724426
3183.580078	636.916443
3182.282227	668.027893
3180.983398	791.556030
3179.684570	545.415222
3178.385742	763.241638
3177.086914	696.178345
3175.788086	667.625244
3174.488281	614.079529
3173.188477	647.106995
3171.887695	501.294159
3170.587891	599.706055
3169.287109	590.441772
3167.986328	519.687012
3166.685547	571.936462
3165.383789	526.194702
3164.082031	518.888672
3162.780273	369.483765
3161.478516	352.619568
3160.175781	362.639587
3158.873047	353.467834
3157.570313	371.167816
3156.267578	352.413330
3154.963867	490.957489
3153.660156	311.102325
3152.356445	265.538696
3151.052734	361.856934
3149.748047	358.475250
3148.443359	332.103333
3147.138672	380.466675
3145.833984	338.784088
3144.528320	369.898560
3143.222656	303.348389
3141.916992	229.170151
3140.610352	231.587753
3139.304688	337.349640
3137.998047	284.265411
3136.691406	307.725372
3135.383789	321.616577
3134.076172	262.840546
3132.768555	249.976318
3131.460938	130.074677
3130.153320	203.250336
3128.844727	242.007004
3127.536133	259.737427
3126.227539	155.221344
3124.917969	88.942482
3123.608398	133.433685
3122.298828	172.184174
3120.989258	67.778900
3119.678711	222.935944
3118.369141	152.909485
3117.057617	161.120468
3115.747070	33.926208
3114.436523	44.070206
3113.125000	227.695862
3111.813477	173.000534
3110.500977	2.084669
3109.189453	183.717056
3107.876953	150.026321
3106.564453	116.351433
3105.250977	101.734726
3103.937500	-49.948700
3102.625000	114.403786
3101.310547	139.770325
3099.997070	45.258667
3098.682617	44.001854
3097.368164	16.121073
3096.053711	-53.581947
3094.739258	-68.118462
3093.423828	2.894218
3092.108398	9.264277
3090.792969	95.441879
3089.476563	1.108070
3088.160156	117.651581
3086.843750	15.759402
3085.527344	18.338243
3084.210938	85.462303
3082.893555	84.236450
3081.576172	71.628517
3080.257813	49.541729
3078.940430	54.022587
3077.622070	-110.285515
3076.303711	-50.781952
3074.984375	-17.839365
3073.666016	11.302595
3072.346680	-23.996353
3071.027344	33.560699
3069.707031	-39.609825
3068.387695	-124.113304
3067.067383	-83.604668
3065.747070	32.620224
3064.425781	-110.519760
3063.104492	-11.361993
3061.783203	-59.826431
3060.461914	-62.867199
3059.140625	21.100151
3057.818359	-82.175423
3056.496094	75.504341
3055.173828	45.985115
3053.850586	67.508049
3052.527344	13.441327
3051.204102	46.302002
3049.880859	-34.178993
3048.556641	-16.425041
3047.233398	-4.339939
3045.909180	-9.247481
3044.583984	-87.759995
3043.259766	-90.757835
3041.934570	53.407364
3040.608398	20.206781
3039.283203	17.195591
3037.957031	121.665741
3036.630859	129.951675
3035.304688	93.000160
3033.978516	57.948860
3032.651367	39.870499
3031.324219	106.570229
3029.997070	52.708679
3028.668945	117.501144
3027.341797	146.499359
3026.013672	130.313171
3024.684570	204.467957
3023.356445	118.661888
3022.027344	213.487274
3020.698242	242.447968
3019.368164	216.864761
3018.039063	465.792297
3016.708984	421.381470
3015.378906	484.115601
3014.047852	420.931213
3012.717773	354.015778
3011.386719	555.726196
3010.055664	515.104980
3008.723633	705.444031
3007.392578	617.881531
3006.060547	783.730896
3004.727539	859.445801
3003.395508	869.467529
3002.062500	990.157959
3000.729492	1168.940308
2999.396484	1218.276611
2998.062500	1325.710693
2996.728516	1504.328369
2995.394531	1656.642944
2994.060547	1784.542603
2992.725586	1850.577515
2991.390625	1997.121704
2990.055664	2353.331299
2988.720703	2540.910645
2987.384766	2739.649414
2986.048828	2996.326416
2984.712891	3062.056152
2983.376953	3391.531494
2982.040039	3679.731689
2980.703125	3842.532959
2979.366211	4222.146973
2978.028320	4524.976074
2976.690430	4754.801270
2975.352539	5193.814453
2974.014648	5389.795410
2972.675781	5800.500000
2971.336914	5990.686523
2969.998047	6328.300781
2968.659180	6484.710938
2967.319336	7012.467773
2965.979492	7019.407227
2964.639648	7384.546387
2963.299805	7452.965332
2961.958984	7804.825684
2960.618164	7942.125488
2959.277344	8226.643555
2957.935547	8320.941406
2956.593750	8396.568359
2955.251953	8671.517578
2953.910156	8953.813477
2952.567383	9075.833008
2951.225586	8955.742188
2949.881836	9154.041992
2948.539063	9447.193359
2947.195313	9276.854492
2945.852539	9432.182617
2944.507813	9594.893555
2943.164063	9320.472656
2941.819336	9343.677734
2940.474609	9418.930664
2939.129883	9362.180664
2937.784180	9272.000000
2936.439453	9215.299805
2935.093750	9010.004883
2933.747070	8903.229492
2932.401367	8647.935547
2931.054688	8693.512695
2929.708008	8798.472656
2928.360352	8673.259766
2927.013672	8394.084961
2925.666016	8363.612305
2924.318359	8323.877930
2922.969727	8321.247070
2921.621094	8298.221680
2920.272461	8204.762695
2918.923828	8133.580078
2917.575195	8162.487793
2916.225586	8174.709473
2914.875977	8323.996094
2913.525391	8369.515625
2912.175781	8261.334961
2910.825195	8367.938477
2909.474609	8178.361816
2908.123047	8593.971680
2906.772461	8543.183594
2905.420898	8718.087891
2904.069336	8696.884766
2902.716797	9115.766602
2901.364258	9144.408203
2900.011719	9263.606445
2898.659180	9613.755859
2897.305664	9642.281250
2895.953125	9702.198242
2894.599609	10074.217773
2893.245117	10021.385742
2891.891602	10363.658203
2890.537109	10318.171875
2889.181641	10237.637695
2887.827148	10249.389648
2886.471680	10185.500977
2885.116211	10082.904297
2883.760742	10031.978516
2882.405273	10034.538086
2881.048828	9637.094727
2879.692383	9178.988281
2878.334961	9124.587891
2876.978516	8668.598633
2875.621094	8074.643555
2874.263672	7987.339355
2872.905273	7564.974121
2871.547852	7113.318848
2870.189453	6746.500000
2868.830078	6574.872070
2867.471680	6088.714844
2866.112305	5933.833496
2864.752930	5703.611816
2863.393555	5319.030762
2862.033203	5155.194336
2860.672852	4655.076660
2859.312500	4500.619141
2857.952148	4360.917969
2856.590820	4179.021484
2855.229492	4063.309570
2853.868164	3842.979736
2852.505859	3705.346436
2851.144531	3316.309570
2849.782227	3404.544434
2848.418945	3382.660156
2847.056641	2988.405762
2845.693359	3116.997070
2844.330078	3008.995361
2842.965820	2921.200928
2841.602539	2937.915771
2840.238281	2633.921875
2838.874023	2575.562500
2837.508789	2363.347412
2836.143555	2370.995117
2834.778320	2572.740234
2833.413086	2210.519775
2832.046875	2093.718018
2830.681641	2050.163574
2829.314453	2039.559692
2827.948242	2100.303467
2826.581055	1804.364380
2825.214844	1835.868774
2823.846680	1775.944092
2822.479492	1589.912598
2821.111328	1418.573120
2819.743164	1609.090210
2818.375000	1351.947021
2817.005859	1513.174561
2815.636719	1511.809448
2814.267578	1384.462769
2812.898438	1288.196045
2811.528320	1261.318604
2810.158203	1232.625000
2808.788086	1213.062744
2807.416992	1197.154175
2806.046875	1024.414917
2804.675781	1216.402588
2803.303711	1047.369019
2801.932617	1026.029541
2800.560547	1019.273987
2799.188477	874.056641
2797.815430	931.082764
2796.443359	966.231140
2795.070313	832.027161
2793.696289	872.638306
2792.323242	707.559143
2790.949219	733.615906
2789.575195	879.740601
2788.201172	782.054810
2786.826172	755.333496
2785.451172	950.456482
2784.076172	878.259155
2782.701172	787.911438
2781.325195	832.074036
2779.949219	719.963074
2778.573242	909.440979
2777.196289	719.258179
2775.819336	868.709045
2774.442383	753.038208
2773.065430	657.376526
2771.687500	685.154663
2770.309570	747.393494
2768.931641	758.811401
2767.553711	788.359436
2766.174805	745.359436
2764.795898	854.665771
2763.416992	764.535339
2762.037109	755.991028
2760.657227	814.488892
2759.277344	722.600159
2757.897461	808.244812
2756.516602	814.175232
2755.135742	716.900635
2753.754883	711.980103
2752.373047	766.782349
2750.991211	788.989868
2749.609375	818.422485
2748.227539	829.753540
2746.844727	781.400513
2745.461914	794.536194
2744.079102	776.934021
2742.696289	744.876709
2741.312500	698.373474
2739.928711	698.857910
2738.544922	735.463806
2737.160156	712.457642
2735.775391	572.096863
2734.390625	639.385803
2733.005859	690.401550
2731.620117	725.154358
2730.234375	642.620728
2728.848633	715.242615
2727.461914	648.968201
2726.076172	616.975220
2724.689453	440.773407
2723.301758	576.448120
2721.915039	578.717224
2720.527344	552.155334
2719.138672	511.190155
2717.750977	428.815918
2716.362305	377.080811
2714.973633	377.569855
2713.584961	460.850891
2712.195313	423.526337
2710.806641	449.185272
2709.416016	300.342987
2708.026367	333.202881
2706.635742	310.303772
2705.245117	276.624298
2703.854492	278.902710
2702.462891	291.959167
2701.072266	303.210876
2699.680664	219.246490
2698.288086	365.201721
2696.896484	311.777893
2695.503906	265.551941
2694.110352	323.448669
2692.717773	156.993179
2691.324219	220.263336
2689.930664	258.391083
2688.537109	296.499908
2687.142578	191.134125
2685.748047	69.670792
2684.353516	272.691925
2682.958984	208.601273
2681.563477	280.707336
2680.167969	304.413025
2678.771484	181.236237
2677.375977	195.990723
2675.979492	173.137131
2674.583008	152.078888
2673.185547	139.973053
2671.789063	169.023026
2670.391602	117.553688
2668.993164	21.384840
2667.595703	96.923508
2666.197266	49.062424
2664.798828	90.594208
2663.400391	266.146759
2662.000977	68.172066
2660.601563	109.663414
2659.202148	27.889339
2657.801758	67.578171
2656.401367	82.250572
2655.000977	191.523697
2653.600586	72.301353
2652.199219	149.405594
2650.797852	131.920563
2649.396484	251.782761
2647.995117	102.308083
2646.592773	59.867916
2645.190430	67.354019
2643.787109	74.832581
2642.384766	68.048615
2640.981445	150.342026
2639.578125	63.380955
2638.173828	93.988426
2636.769531	48.015697
2635.365234	41.221050
2633.960938	125.196259
2632.555664	141.513351
2631.150391	11.929855
2629.745117	33.589783
2628.339844	-26.570843
2626.933594	-58.263706
2625.527344	-49.060860
2624.121094	-30.979410
2622.713867	11.968165
2621.306641	3.370469
2619.899414	-1.675351
2618.492188	43.003048
2617.083984	174.664673
2615.675781	47.078789
2614.266602	-92.886230
2612.858398	54.681255
2611.449219	44.278740
2610.040039	25.006077
2608.629883	35.885921
2607.220703	73.354836
2605.810547	22.161760
2604.399414	-105.232887
2602.989258	-27.014591
2601.578125	-42.737171
2600.166992	19.484406
2598.754883	-52.925865
2597.343750	-107.605103
2595.930664	14.769506
2594.518555	-61.152241
2593.106445	-105.195366
2591.693359	-76.683937
2590.280273	-129.561996
2588.866211	-92.224411
2587.452148	-37.223637
2586.038086	31.892952
2584.624023	-61.640293
2583.208984	-63.246571
2581.794922	-63.089794
2580.378906	-92.970795
2578.963867	69.670006
2577.547852	-30.869749
2576.131836	-36.038475
2574.715820	29.394768
2573.298828	-30.503506
2571.881836	59.593697
2570.464844	17.342600
2569.047852	61.526394
2567.629883	-97.104340
2566.211914	3.490780
2564.793945	-75.755157
2563.375000	88.228729
2561.956055	35.415459
2560.537109	28.420237
2559.118164	-17.326290
2557.698242	67.250168
2556.278320	-70.050209
2554.857422	25.052906
2553.437500	-98.116943
2552.016602	-1.298387
2550.595703	-41.742989
2549.173828	58.531719
2547.752930	-36.434875
2546.330078	26.864727
2544.908203	53.219860
2543.485352	167.431412
2542.063477	105.879601
2540.639648	188.401489
2539.216797	-57.568527
2537.792969	-24.229601
2536.369141	2.066637
2534.945313	-68.200340
2533.520508	61.629139
2532.095703	122.967621
2530.670898	156.206192
2529.245117	26.302858
2527.819336	12.185799
2526.393555	27.874033
2524.967773	-40.592419
2523.541016	132.821579
2522.114258	130.934357
2520.687500	-23.374720
2519.260742	55.328911
2517.833008	67.448036
2516.405273	-16.742455
2514.976563	107.406326
2513.547852	31.978836
2512.119141	7.319785
2510.690430	22.902296
2509.261719	-169.675507
2507.832031	-17.672478
2506.402344	18.866474
2504.971680	62.375847
2503.541016	51.680859
2502.110352	-9.691167
2500.679688	73.960426
2499.248047	16.087219
2497.816406	-19.066618
2496.384766	-50.721806
2494.953125	-31.746532
2493.520508	-82.598907
2492.087891	130.053146
2490.655273	19.857082
2489.221680	66.682404
2487.788086	158.825073
2486.354492	39.949127
2484.919922	-21.360104
2483.485352	-30.365240
2482.050781	98.288185
2480.616211	70.084534
2479.180664	102.849335
2477.745117	-21.142414
2476.309570	-45.845810
2474.873047	82.645233
2473.437500	-27.366285
2472.000000	-55.557106
2470.563477	-47.207569
2469.125977	58.538933
2467.688477	47.716709
2466.250977	38.630424
2464.812500	53.877048
2463.374023	63.896183
2461.935547	40.887024
2460.497070	19.616638
2459.057617	57.405617
2457.618164	-24.658972
2456.177734	115.551071
2454.738281	28.284662
2453.297852	-5.151016
2451.857422	11.742753
2450.416016	40.766022
2448.974609	43.751007
2447.533203	112.628357
2446.091797	67.032814
2444.649414	0.643317
2443.207031	-24.129772
2441.764648	-26.373384
2440.321289	64.931732
2438.877930	-63.795250
2437.434570	159.085297
2435.990234	90.976395
2434.546875	131.950333
2433.101563	-5.375061
2431.657227	90.959496
2430.211914	66.138474
2428.766602	4.993681
2427.321289	13.042674
2425.875977	136.928986
2424.429688	41.206486
2422.983398	139.094208
2421.536133	147.075684
2420.089844	73.843430
2418.642578	112.910454
2417.194336	46.604351
2415.747070	39.024410
2414.298828	90.132813
2412.849609	10.036954
2411.401367	-107.998825
2409.952148	113.887543
2408.502930	4.484967
2407.052734	62.403889
2405.603516	68.563972
2404.152344	116.085655
2402.703125	75.678917
2401.251953	-76.732498
2399.800781	236.089462
2398.349609	80.243881
2396.898438	205.172165
2395.445313	71.759689
2393.994141	143.255142
2392.541016	166.517685
2391.087891	138.137482
2389.634766	195.784424
2388.181641	55.582527
2386.728516	-57.055637
2385.275391	48.713665
2383.820313	1.428558
2382.365234	71.029861
2380.910156	104.507294
2379.455078	113.909180
2378.000000	85.507965
2376.544922	139.543854
2375.089844	14.975333
2373.632813	168.553345
2372.175781	93.782738
2370.718750	-15.287182
2369.261719	139.892883
2367.804688	-0.037943
2366.347656	17.858328
2364.888672	126.613327
2363.429688	130.741745
2361.972656	-79.385239
2360.513672	157.817612
2359.054688	81.385025
2357.593750	49.507774
2356.134766	5.647534
2354.673828	71.378212
2353.214844	82.293854
2351.753906	53.826721
2350.292969	21.939362
2348.832031	-35.608479
2347.369141	4.356309
2345.908203	40.877583
2344.445313	-38.899124
2342.984375	64.268341
2341.521484	18.683180
2340.058594	121.775787
2338.593750	88.135712
2337.130859	54.501278
2335.667969	-20.117056
2334.203125	-7.636620
2332.738281	-90.770515
2331.273438	66.776169
2329.808594	79.202141
2328.343750	54.079163
2326.878906	52.836418
2325.412109	-57.565075
2323.945313	-31.525843
2322.478516	197.356934
2321.011719	-85.181419
2319.544922	-147.793259
2318.078125	26.426199
2316.611328	2.974484
2315.142578	-3.450165
2313.673828	39.495956
2312.205078	-52.071449
2310.736328	193.385696
2309.267578	-7.102849
2307.798828	86.808128
2306.328125	-71.077255
2304.859375	-14.625600
2303.388672	-43.224754
2301.917969	-46.323395
2300.447266	-117.416168
2298.974609	-13.467080
2297.503906	-52.278641
2296.031250	12.526804
2294.560547	-92.527519
2293.087891	-48.135792
2291.615234	-20.748064
2290.142578	-149.527924
2288.667969	135.773911
2287.195313	-65.958855
2285.720703	75.012100
2284.246094	-14.723187
2282.773438	31.212492
2281.296875	-16.122089
2279.822266	-97.342857
2278.347656	-127.706436
2276.871094	26.593987
2275.396484	40.236252
2273.919922	-25.734386
2272.443359	23.445066
2270.966797	38.737492
2269.488281	-91.542557
2268.011719	-81.331360
2266.533203	-44.068657
2265.056641	37.148674
2263.578125	-45.718765
2262.099609	-30.498705
2260.619141	47.247845
2259.140625	-3.492398
2257.662109	-96.466942
2256.181641	-49.196320
2254.701172	26.758905
2253.220703	1.347934
2251.740234	-100.042030
2250.259766	-41.035999
2248.777344	-63.078865
2247.296875	65.056534
2245.814453	-44.746662
2244.332031	-9.460551
2242.849609	-7.926941
2241.367188	-23.264978
2239.884766	74.332947
2238.400391	-18.567408
2236.917969	-70.997490
2235.433594	-37.503036
2233.949219	-51.194248
2232.464844	27.728182
2230.978516	-83.648079
2229.494141	40.675930
2228.009766	-30.285841
2226.523438	-138.251923
2225.037109	36.440514
2223.550781	-46.288128
2222.064453	66.072899
2220.576172	-90.631020
2219.089844	13.266246
2217.601563	21.312889
2216.115234	9.185352
2214.626953	205.358521
2213.138672	70.562737
2211.648438	-17.174593
2210.160156	9.281110
2208.669922	10.533046
2207.181641	-1.648919
2205.691406	21.394522
2204.201172	-51.203403
2202.710938	-132.169739
2201.218750	36.737698
2199.728516	148.566254
2198.236328	-21.268051
2196.744141	-67.030861
2195.251953	-92.680168
2193.759766	0.608245
2192.267578	-58.564552
2190.775391	49.727234
2189.281250	-46.289944
2187.787109	60.255096
2186.294922	-32.397774
2184.800781	77.425034
2183.304688	-28.607075
2181.810547	-10.839513
2180.316406	-1.451123
2178.820313	-8.800004
2177.324219	18.943605
2175.828125	-58.617752
2174.332031	37.605289
2172.835938	-34.940006
2171.337891	46.181179
2169.841797	-36.378799
2168.343750	22.984030
2166.845703	-1.144614
2165.347656	59.832443
2163.849609	39.019699
2162.351563	149.985031
2160.851563	64.092361
2159.353516	34.919537
2157.853516	-5.926733
2156.353516	-25.099405
2154.853516	-22.612629
2153.353516	-38.465420
2151.851563	35.623547
2150.351563	124.663910
2148.849609	3.852082
2147.347656	127.795921
2145.845703	12.002765
2144.343750	-20.551788
2142.839844	-38.134346
2141.337891	70.700928
2139.833984	3.191795
2138.330078	105.296776
2136.826172	46.097439
2135.322266	-14.751914
2133.818359	188.625198
2132.314453	56.309361
2130.808594	56.915211
2129.302734	118.956047
2127.796875	-58.134033
2126.291016	32.102501
2124.785156	-13.804540
2123.279297	-1.626628
2121.771484	28.780104
2120.263672	75.750313
2118.757813	-49.775326
2117.250000	-45.939312
2115.740234	20.871122
2114.232422	52.843491
2112.724609	-3.030716
2111.214844	88.547066
2109.705078	118.791954
2108.195313	18.187857
2106.685547	91.459412
2105.175781	5.777047
2103.664063	47.549622
2102.154297	71.097168
2100.642578	116.125557
2099.130859	8.956931
2097.619141	32.459476
2096.107422	24.528728
2094.595703	104.198402
2093.082031	-59.120773
2091.570313	121.303032
2090.056641	80.271706
2088.542969	-58.202087
2087.029297	92.350922
2085.513672	76.077721
2084.000000	-14.475276
2082.484375	-17.539989
2080.968750	40.435368
2079.455078	-28.642876
2077.937500	77.114807
2076.421875	67.394150
2074.906250	126.909966
2073.388672	61.114342
2071.873047	8.523123
2070.355469	51.501362
2068.837891	132.339233
2067.320313	94.550919
2065.800781	-37.095142
2064.283203	-0.771464
2062.763672	65.150078
2061.244141	104.704338
2059.724609	50.448978
2058.205078	-30.114019
2056.685547	24.204834
2055.164063	140.969788
2053.644531	104.792679
2052.123047	145.865921
2050.601563	29.155132
2049.080078	170.426941
2047.558594	-21.823500
2046.035156	15.911369
2044.513672	97.957863
2042.990234	22.359343
2041.466797	10.791941
2039.943359	92.754227
2038.419922	-25.484217
2036.896484	20.344709
2035.371094	131.738724
2033.847656	67.641960
2032.322266	123.225090
2030.796875	131.245377
2029.271484	139.252167
2027.744141	134.134735
2026.218750	53.667908
2024.691406	32.173595
2023.164063	117.102966
2021.636719	64.482925
2020.109375	2.054240
2018.582031	6.729552
2017.054688	-39.321655
2015.525391	-15.036365
2013.996094	45.206078
2012.468750	136.483887
2010.939453	10.303388
2009.408203	54.127495
2007.878906	186.163391
2006.347656	58.383186
2004.818359	102.147415
2003.287109	106.687897
2001.755859	86.727913
2000.224609	115.736267
1998.691406	156.142075
1997.160156	18.678074
1995.626953	169.998337
1994.093750	101.065948
1992.560547	146.297470
1991.027344	-62.827084
1989.494141	76.940903
1987.960938	-120.694916
1986.425781	14.117385
1984.890625	108.141220
1983.355469	106.027519
1981.820313	186.950180
1980.285156	61.076740
1978.750000	1.980014
1977.212891	95.862450
1975.675781	31.879610
1974.138672	-25.578789
1972.601563	152.796387
1971.064453	31.906094
1969.527344	-48.300888
1967.988281	138.066330
1966.451172	69.229095
1964.912109	130.380722
1963.373047	48.557213
1961.833984	176.256683
1960.292969	92.812363
1958.753906	36.996460
1957.212891	190.560318
1955.671875	66.573677
1954.130859	-24.922377
1952.589844	91.230423
1951.048828	28.941814
1949.505859	52.598206
1947.964844	154.052963
1946.421875	38.279503
1944.878906	126.712852
1943.335938	-47.343697
1941.792969	91.267647
1940.248047	32.246239
1938.705078	41.246796
1937.160156	29.188465
1935.615234	73.771942
1934.070313	95.677467
1932.525391	62.565277
1930.978516	73.123955
1929.433594	7.674799
1927.886719	-43.208328
1926.339844	61.097668
1924.792969	145.961517
1923.246094	104.756821
1921.699219	95.871361
1920.150391	43.370651
1918.601563	145.901245
1917.052734	99.857735
1915.503906	39.299797
1913.955078	-85.789101
1912.406250	53.770317
1910.855469	-74.513588
1909.306641	-12.438045
1907.755859	14.127826
1906.205078	-128.594193
1904.654297	70.434090
1903.101563	69.550583
1901.550781	139.557236
1899.998047	67.774811
1898.447266	-3.977633
1896.894531	-49.948662
1895.339844	108.533676
1893.787109	-67.818985
1892.234375	18.186752
1890.679688	91.276962
1889.125000	17.960602
1887.570313	92.620079
1886.015625	64.343864
1884.460938	-12.150187
1882.906250	88.171715
1881.349609	69.537117
1879.792969	-59.942978
1878.236328	4.973716
1876.679688	26.502134
1875.123047	-1.752648
1873.566406	-57.288101
1872.007813	-43.800514
1870.449219	93.227386
1868.890625	117.901665
1867.332031	-9.806406
1865.773438	50.150639
1864.214844	118.096138
1862.654297	-28.782419
1861.093750	156.126984
1859.533203	9.295640
1857.972656	46.740734
1856.412109	121.004356
1854.851563	-38.547180
1853.289063	-34.747387
1851.728516	20.273687
1850.166016	73.663383
1848.603516	-66.562462
1847.039063	71.593697
1845.476563	-33.394180
1843.914063	-75.981186
1842.349609	-61.007648
1840.785156	77.027122
1839.220703	61.598824
1837.656250	-22.522917
1836.091797	107.428123
1834.525391	109.560829
1832.958984	44.632256
1831.392578	198.426193
1829.826172	99.988144
1828.259766	-0.005490
1826.693359	26.073311
1825.125000	98.391068
1823.558594	-3.137370
1821.990234	53.212528
1820.421875	34.619190
1818.853516	68.626175
1817.285156	59.597851
1815.714844	61.719315
1814.144531	3.316441
1812.576172	53.226315
1811.005859	-36.990536
1809.433594	63.832996
1807.863281	126.427612
1806.292969	136.491608
1804.720703	122.685699
1803.148438	27.774202
1801.576172	118.945709
1800.003906	52.692524
1798.431641	-75.520401
1796.857422	-8.222270
1795.285156	-18.795727
1793.710938	13.520527
1792.136719	80.764229
1790.562500	165.448196
1788.986328	118.332787
1787.412109	72.831215
1785.835938	-69.451416
1784.259766	-59.368504
1782.683594	1.471180
1781.107422	-48.721313
1779.531250	97.714783
1777.955078	-58.679886
1776.376953	-35.921268
1774.798828	-100.318855
1773.220703	76.115280
1771.642578	-43.708607
1770.064453	83.557274
1768.484375	-12.468223
1766.906250	67.259293
1765.326172	-123.671021
1763.746094	11.428383
1762.166016	-97.142578
1760.583984	-83.885117
1759.003906	-81.692909
1757.421875	84.918312
1755.841797	-72.559914
1754.259766	-62.460659
1752.675781	-167.704193
1751.093750	-103.871277
1749.511719	-103.232140
1747.927734	9.515779
1746.343750	18.030144
1744.759766	-93.408646
1743.175781	-23.321953
1741.591797	-117.339531
1740.005859	4.783122
1738.421875	-73.418694
1736.835938	-39.639679
1735.250000	-9.021053
1733.664063	-54.060257
1732.076172	-20.291531
1730.490234	-88.927734
1728.902344	58.255001
1727.316406	-65.471848
1725.728516	13.958420
1724.138672	-67.203064
1722.550781	-72.775719
1720.962891	61.701374
1719.373047	8.920142
1717.783203	85.140114
1716.193359	148.756927
1714.603516	22.122257
1713.013672	55.876873
1711.421875	-12.527966
1709.830078	84.080292
1708.240234	75.413216
1706.648438	-16.485647
1705.054688	80.085045
1703.462891	52.607342
1701.871094	95.781067
1700.277344	7.124492
1698.683594	-12.453115
1697.089844	113.867226
1695.496094	-7.643363
1693.902344	49.653435
1692.306641	74.011299
1690.710938	178.302322
1689.117188	30.280882
1687.521484	147.091934
1685.923828	-82.299988
1684.328125	90.883682
1682.730469	-2.164616
1681.134766	103.641716
1679.537109	-59.775337
1677.939453	-49.430519
1676.341797	76.687050
1674.742188	-41.235680
1673.144531	-35.557079
1671.544922	-17.366230
1669.945313	18.022724
1668.345703	120.608940
1666.746094	34.108360
1665.144531	231.958557
1663.544922	29.922501
1661.943359	109.044640
1660.341797	13.297342
1658.740234	131.437088
1657.138672	-84.408058
1655.535156	93.011566
1653.933594	215.780533
1652.330078	107.696404
1650.726563	30.854500
1649.123047	72.534737
1647.519531	-113.339905
1645.914063	42.128803
1644.310547	-93.780479
1642.705078	130.182693
1641.099609	56.627689
1639.494141	-12.211004
1637.888672	-46.760983
1636.281250	-176.220093
1634.675781	-62.872898
1633.068359	-46.012173
1631.460938	53.290173
1629.853516	67.040611
1628.244141	-48.242779
1626.636719	-8.021043
1625.027344	-9.763494
1623.417969	13.370929
1621.808594	-159.217255
1620.199219	-52.162197
1618.589844	-30.537008
1616.978516	31.455353
1615.369141	105.859879
1613.757813	-61.833458
1612.146484	116.538521
1610.535156	23.402212
1608.921875	29.571373
1607.310547	28.006777
1605.697266	-69.654396
1604.083984	-54.117245
1602.470703	59.052429
1600.857422	66.845963
1599.242188	79.297966
1597.628906	121.189728
1596.013672	42.315449
1594.398438	-41.150730
1592.783203	-28.612490
1591.167969	42.736935
1589.550781	254.845871
1587.935547	-4.836241
1586.318359	24.767334
1584.701172	105.396019
1583.083984	79.359009
1581.466797	34.808777
1579.847656	-8.161667
1578.230469	67.852379
1576.611328	146.940643
1574.992188	36.095329
1573.373047	59.623188
1571.751953	138.721863
1570.132813	-59.947384
1568.511719	57.754765
1566.890625	160.004456
1565.269531	121.897987
1563.648438	43.740665
1562.027344	53.503796
1560.404297	24.751408
1558.783203	25.311871
1557.160156	115.242851
1555.537109	29.573320
1553.912109	201.121323
1552.289063	26.218435
1550.664063	79.217941
1549.041016	18.339470
1547.416016	39.053135
1545.791016	25.938517
1544.164063	105.127808
1542.539063	99.738831
1540.912109	88.223373
1539.287109	118.238213
1537.660156	5.349030
1536.033203	109.158661
1534.404297	54.733547
1532.777344	49.500244
1531.148438	119.526131
1529.519531	66.739609
1527.890625	-42.786949
1526.261719	82.527130
1524.632813	117.300117
1523.001953	115.269081
1521.373047	71.862083
1519.742188	88.289528
1518.111328	-100.666908
1516.478516	-58.109867
1514.847656	-75.298546
1513.214844	63.795559
1511.583984	115.559616
1509.951172	49.419220
1508.318359	-65.657104
1506.683594	-1.580419
1505.050781	70.149460
1503.416016	120.453506
1501.783203	54.511467
1500.148438	150.730286
1498.511719	155.193161
1496.876953	191.785202
1495.242188	193.235611
1493.605469	205.407516
1491.968750	200.795456
1490.332031	266.474243
1488.695313	396.290680
1487.058594	617.686707
1485.419922	747.428406
1483.781250	777.944824
1482.142578	919.860046
1480.503906	1076.999268
1478.865234	1095.308960
1477.226563	1343.893799
1475.585938	1601.548218
1473.945313	1720.418335
1472.304688	1671.636963
1470.664063	1990.089111
1469.023438	1872.781616
1467.380859	1910.891113
1465.740234	1778.479736
1464.097656	1787.726685
1462.455078	1780.256470
1460.812500	1751.515259
1459.167969	1599.583374
1457.525391	1475.124023
1455.880859	1321.850952
1454.236328	1183.875854
1452.591797	1080.950562
1450.947266	940.102661
1449.302734	782.629883
1447.656250	801.472107
1446.009766	625.927124
1444.363281	588.669678
1442.716797	692.648193
1441.070313	444.469086
1439.421875	601.608521
1437.775391	482.577454
1436.126953	457.674683
1434.478516	455.561920
1432.830078	335.210938
1431.179688	512.067688
1429.531250	514.584229
1427.880859	471.670074
1426.230469	457.590240
1424.580078	582.897583
1422.929688	432.569672
1421.279297	485.217865
1419.626953	383.475464
1417.974609	564.814819
1416.322266	573.616394
1414.669922	632.368042
1413.017578	441.570740
1411.363281	471.658264
1409.710938	639.340454
1408.056641	610.488708
1406.402344	562.034546
1404.748047	596.731995
1403.091797	512.112671
1401.437500	484.949371
1399.781250	463.870819
1398.125000	460.947998
1396.468750	510.884064
1394.812500	553.286499
1393.154297	568.548462
1391.498047	561.210938
1389.839844	513.193054
1388.181641	407.935181
1386.523438	620.812866
1384.865234	562.361816
1383.205078	439.177979
1381.544922	537.525391
1379.884766	754.847473
1378.224609	652.881470
1376.564453	516.364807
1374.904297	467.237885
1373.242188	568.652100
1371.580078	418.798981
1369.919922	500.691132
1368.255859	612.662781
1366.593750	488.555603
1364.931641	489.306122
1363.267578	554.717346
1361.603516	549.511841
1359.939453	706.591919
1358.275391	536.201721
1356.611328	437.998474
1354.945313	559.072510
1353.279297	518.014343
1351.613281	460.499664
1349.947266	533.580322
1348.281250	657.668335
1346.615234	550.767700
1344.947266	565.406433
1343.279297	455.641479
1341.611328	392.421661
1339.943359	554.043335
1338.275391	517.865356
1336.605469	603.068787
1334.935547	480.104980
1333.267578	577.324585
1331.597656	544.303589
1329.925781	445.481140
1328.255859	461.949402
1326.583984	583.168030
1324.912109	635.567078
1323.240234	577.320374
1321.568359	638.737488
1319.896484	718.100647
1318.224609	642.042603
1316.550781	566.052063
1314.876953	615.609070
1313.203125	695.048645
1311.529297	719.241882
1309.853516	638.960693
1308.179688	606.506836
1306.503906	505.460388
1304.828125	741.665649
1303.152344	652.634216
1301.474609	753.071838
1299.798828	516.538696
1298.121094	728.831116
1296.443359	680.256897
1294.765625	741.999634
1293.087891	715.858154
1291.410156	724.017883
1289.730469	674.136108
1288.050781	794.031128
1286.371094	791.854309
1284.691406	765.903503
1283.011719	841.169739
1281.332031	892.638489
1279.650391	721.042236
1277.968750	769.611328
1276.287109	871.711853
1274.605469	777.616272
1272.921875	893.115906
1271.240234	822.893555
1269.556641	853.739990
1267.873047	939.552307
1266.189453	985.275696
1264.505859	971.637695
1262.820313	934.298950
1261.134766	943.005920
1259.451172	779.659241
1257.765625	991.650818
1256.078125	907.027649
1254.392578	1101.179565
1252.705078	991.438416
1251.019531	847.690918
1249.332031	967.759155
1247.642578	978.200745
1245.955078	871.674927
1244.267578	867.389465
1242.578125	943.079834
1240.888672	876.692139
1239.199219	745.260559
1237.509766	821.028076
1235.818359	776.997864
1234.128906	724.142029
1232.437500	687.609436
1230.746094	627.474915
1229.054688	712.222778
1227.363281	628.534607
1225.669922	614.345337
1223.976563	595.764771
1222.283203	534.404663
1220.589844	551.343567
1218.896484	761.654114
1217.203125	600.053467
1215.507813	507.897186
1213.812500	659.185120
1212.117188	542.050354
1210.421875	570.959167
1208.726563	706.018860
1207.029297	608.208252
1205.332031	581.194885
1203.636719	568.951233
1201.937500	528.770691
1200.240234	560.785950
1198.542969	517.738159
1196.843750	540.978821
1195.144531	390.598114
1193.445313	459.527069
1191.746094	376.952118
1190.046875	384.150940
1188.345703	450.195038
1186.644531	361.892609
1184.943359	229.568268
1183.242188	388.265350
1181.541016	366.231750
1179.837891	264.931183
1178.136719	241.525757
1176.433594	269.549957
1174.730469	263.832275
1173.027344	341.794983
1171.322266	364.006897
1169.619141	387.700592
1167.914063	235.431854
1166.208984	246.011475
1164.503906	351.901703
1162.796875	375.707214
1161.091797	392.199249
1159.384766	351.584351
1157.677734	369.602783
1155.970703	393.500549
1154.263672	335.428864
1152.554688	428.183899
1150.847656	310.185059
1149.138672	354.679230
1147.429688	527.911377
1145.720703	543.146057
1144.009766	432.659119
1142.300781	535.677185
1140.589844	404.832275
1138.878906	464.035675
1137.167969	461.881500
1135.455078	613.129639
1133.744141	740.969360
1132.031250	759.285339
1130.318359	844.768005
1128.605469	1029.480347
1126.892578	1234.567993
1125.179688	1163.884399
1123.464844	1361.623291
1121.750000	1409.113159
1120.035156	1386.632080
1118.320313	1617.799072
1116.605469	1674.025146
1114.888672	1740.457153
1113.171875	1635.006470
1111.455078	1708.751099
1109.738281	1577.194824
1108.021484	1623.312012
1106.302734	1625.780884
1104.585938	1619.535522
1102.867188	1736.978638
1101.148438	1649.319092
1099.429688	1611.162354
1097.708984	1641.380981
1095.990234	1716.663696
1094.269531	1624.826538
1092.548828	1736.457275
1090.828125	1627.270508
1089.105469	1767.951660
1087.384766	1709.670532
1085.662109	1620.959106
1083.939453	1824.028320
1082.216797	1909.499756
1080.492188	1873.103149
1078.769531	1878.799805
1077.044922	1888.873169
1075.320313	1988.851074
1073.595703	1974.298828
1071.871094	2152.516113
1070.146484	2064.085693
1068.419922	2114.782959
1066.693359	2340.719238
1064.966797	2203.144775
1063.240234	2266.872070
1061.513672	2360.985840
1059.785156	2378.395752
1058.056641	2086.222168
1056.328125	2424.824219
1054.599609	2260.061035
1052.871094	2310.810303
1051.140625	2189.552246
1049.412109	2118.939697
1047.681641	2081.614990
1045.951172	2078.994629
1044.218750	2057.626465
1042.488281	1811.025391
1040.755859	1628.074707
1039.023438	1692.026855
1037.291016	1434.180176
1035.558594	1423.161743
1033.826172	1342.932129
1032.091797	1140.185303
1030.357422	1021.164368
1028.623047	905.095398
1026.888672	839.532715
1025.154297	729.349243
1023.417969	708.550049
1021.681641	683.455811
1019.945313	691.507324
1018.208984	585.841125
1016.472656	442.814880
1014.734375	443.772583
1012.998047	456.247437
1011.259766	304.764893
1009.521484	300.045624
1007.783203	334.163116
1006.042969	397.038086
1004.302734	419.660095
1002.564453	380.495300
1000.824219	318.384766
999.082031	421.488983
997.341797	346.500610
995.599609	344.782806
993.859375	311.494446
992.117188	370.081726
990.373047	404.274963
988.630859	414.074310
986.886719	515.670654
985.144531	466.683258
983.400391	538.147278
981.656250	555.133728
979.910156	610.819275
978.166016	639.266968
976.419922	651.967651
974.673828	600.237854
972.927734	545.677979
971.181641	609.951904
969.433594	435.239349
967.687500	416.550934
965.939453	319.217438
964.191406	354.933838
962.441406	379.215271
960.693359	372.040131
958.943359	294.856903
957.195313	292.009216
955.445313	283.466095
953.693359	290.654663
951.943359	322.116638
950.191406	263.641479
948.441406	229.456970
946.689453	315.172882
944.935547	509.299286
943.183594	429.472626
941.431641	440.959137
939.677734	409.682800
937.923828	619.335022
936.169922	655.032837
934.414063	800.446289
932.660156	870.294800
930.904297	782.035400
929.148438	914.533813
927.392578	904.617432
925.636719	1007.156311
923.878906	920.401611
922.123047	914.778198
920.365234	931.930664
918.607422	853.799927
916.849609	910.780823
915.089844	863.981018
913.330078	562.811646
911.572266	638.306702
909.812500	593.032898
908.050781	621.646667
906.291016	688.584656
904.529297	595.083374
902.767578	491.692017
901.005859	419.568665
899.244141	520.569641
897.482422	356.280701
895.718750	332.471680
893.957031	483.063477
892.193359	348.677399
890.427734	395.766907
888.664063	255.797379
886.898438	342.559509
885.134766	464.687164
883.369141	520.221008
881.603516	503.533600
879.835938	585.942627
878.070313	801.329895
876.302734	902.036987
874.535156	906.518372
872.767578	1202.322388
871.000000	1116.254028
869.230469	1262.059204
867.460938	1472.813965
865.693359	1366.968140
863.921875	1710.411987
862.152344	1803.714355
860.382813	1872.973877
858.611328	1923.860107
856.839844	2058.001709
855.068359	2249.942627
853.296875	2182.209473
851.523438	2280.956787
849.751953	2210.428711
847.978516	2031.376099
846.205078	2065.253418
844.431641	1766.518921
842.656250	1684.910156
840.880859	1370.901367
839.107422	1366.868408
837.332031	1155.856079
835.554688	1004.071045
833.779297	981.832764
832.001953	982.127319
830.226563	968.345398
828.447266	1093.837158
826.669922	1160.203247
824.892578	1331.989014
823.113281	1292.858643
821.333984	1363.363892
819.554688	1213.244873
817.775391	1154.499634
815.996094	973.592590
814.214844	840.513123
812.435547	793.117126
810.654297	580.132202
808.871094	357.424530
807.089844	234.413376
805.306641	305.026123
803.525391	273.230835
801.742188	255.476913
799.958984	309.218567
798.173828	248.028900
796.390625	282.132813
794.605469	139.727722
792.820313	229.868515
791.035156	95.937477
789.248047	169.258194
787.462891	157.162552
785.675781	212.246902
783.888672	211.347366
782.101563	188.069427
780.314453	188.573761
778.525391	113.589188
776.736328	63.797585
774.947266	71.323975
773.158203	6.193778
771.369141	167.386047
769.578125	71.547089
767.789063	0.874631
765.998047	122.884422
764.207031	137.375534
762.414063	-54.644852
760.623047	25.446795
758.830078	-21.410456
757.037109	43.309566
755.244141	117.761223
753.451172	13.768314
751.656250	54.757931
749.863281	-18.523285
748.068359	5.742141
746.271484	-43.803616
744.476563	-96.119949
742.681641	-9.208474
740.884766	-74.024902
739.087891	-48.368210
737.291016	-40.806164
735.494141	-6.820102
733.695313	-129.968765
731.896484	20.812670
730.097656	-30.008886
728.298828	87.338173
726.500000	-14.876018
724.701172	-40.647900
722.900391	-37.234932
721.099609	70.310547
719.298828	44.552635
717.496094	47.960945
715.695313	-30.500483
713.892578	15.932147
712.089844	-40.283241
710.287109	22.777342
708.484375	27.589149
706.679688	35.183342
704.876953	182.725632
703.072266	11.573102
701.267578	145.222275
699.460938	100.186272
697.656250	84.240654
695.849609	84.925171
694.042969	163.113281
692.236328	288.314484
690.429688	145.107056
688.621094	270.277130
686.812500	210.117126
685.005859	228.777374
683.195313	207.371658
681.386719	440.223633
679.578125	305.503204
677.767578	375.273346
675.957031	334.548676
674.146484	384.968109
672.333984	237.999405
670.523438	389.173004
668.710938	362.316376
666.898438	277.545227
665.085938	139.035034
663.273438	92.972588
661.458984	158.605545
659.644531	80.886940
657.830078	142.379059
656.015625	129.463974
654.201172	9.136096
652.384766	89.919968
650.570313	96.329300
648.753906	77.980316
646.935547	-25.658895
645.119141	50.978531
643.300781	-51.211311
641.484375	-41.962360
639.666016	-89.067444
637.847656	19.189610
636.027344	35.343235
634.208984	-40.563229
632.388672	-9.266373
630.568359	54.991947
628.748047	-147.143936
626.925781	-71.864616
625.105469	-17.199125
623.283203	-47.609997
621.460938	-5.282009
619.636719	45.281315
617.814453	-5.645930
615.990234	-49.671181
614.167969	15.986443
612.343750	11.750816
610.517578	-58.221939
608.693359	44.439789
606.867188	99.150703
605.041016	-11.818041
603.214844	48.393749
601.388672	75.751236
599.562500	29.227882
597.734375	33.369209
595.906250	-56.843243
594.078125	23.930201
592.250000	47.270439
590.419922	103.433510
588.591797	46.164196
586.761719	-8.317226
584.931641	-39.532745
583.099609	-3.787761
581.269531	26.494385
579.437500	146.886185
577.605469	28.422686
575.773438	113.333733
573.941406	101.378922
572.107422	144.015686
570.273438	83.030479
568.439453	33.003204
566.605469	82.517212
564.771484	97.969810
562.935547	118.900070
561.101563	180.700073
559.265625	200.294388
557.427734	245.784454
555.591797	221.854706
553.753906	249.684708
551.917969	144.187759
550.080078	276.818939
548.240234	161.918991
546.402344	211.607559
544.562500	187.907776
542.724609	74.541237
540.884766	147.414459
539.042969	91.241707
537.203125	172.290298
535.361328	-14.156114
533.519531	47.946159
531.677734	29.974379
529.835938	116.529907
527.994141	-103.529045
526.150391	-4.699991
524.306641	-8.942799
522.462891	-22.640978
520.619141	139.914734
518.773438	-1.120231
516.927734	42.206718
515.082031	65.230804
513.236328	-3.812860
511.390625	85.627739
509.542969	127.695007
507.697266	195.484299
505.849609	263.289948
504.000000	312.172882
502.152344	461.147614
500.302734	491.107819
498.455078	599.494141
496.605469	614.617981
494.753906	804.104492
492.904297	871.942505
491.052734	970.865417
489.203125	959.037048
487.351563	1021.520569
485.498047	939.591064
483.646484	848.279419
481.792969	889.284668
479.939453	749.550171
478.085938	769.058533
476.232422	589.039429
474.376953	604.620056
472.523438	447.707275
470.667969	359.635773
468.812500	303.975159
466.955078	187.780106
465.099609	234.602600
463.242188	161.635452
461.384766	90.086777
459.527344	26.684124
457.667969	-27.221794
455.810547	-0.367510
453.951172	54.767250
452.091797	-50.079388
450.232422	88.465088
448.371094	3.907770
446.511719	65.873001
444.650391	10.991706
442.789063	105.252747
440.927734	49.124741
439.064453	140.742340
437.201172	63.247540
435.337891	111.961952
433.474609	135.204742
431.611328	179.937119
429.748047	193.846878
427.882813	226.570206
426.017578	284.785431
424.152344	267.968353
422.285156	307.480347
420.419922	434.068512
418.552734	478.958801
416.685547	452.904968
414.818359	429.576996
412.949219	474.561920
411.082031	304.129883
409.212891	282.308807
407.343750	201.685608
405.472656	206.721405
403.603516	194.399323
401.732422	15.060460
399.861328	92.394554
397.990234	84.226227
396.119141	-41.444382
394.246094	62.667824
392.375000	45.262024
390.501953	-52.180592
388.628906	69.305275
386.753906	78.707100
384.880859	64.111198
383.005859	17.555021
381.130859	84.377899
379.253906	-46.076748
377.378906	-48.519539
375.501953	54.337029
373.626953	55.917683
371.748047	-55.661575
369.871094	-127.235748
367.994141	-70.957878
366.115234	-171.725845
364.236328	-84.807472
362.357422	-29.839140
360.478516	29.111574
358.597656	-110.073517
356.716797	-57.737625
354.835938	21.171682
352.955078	5.705584
351.074219	-31.001526
349.191406	-23.837280
347.308594	-15.341170
345.425781	-0.204607
343.542969	21.566751
341.658203	-9.742284
339.775391	35.907990
337.890625	-0.696018
336.005859	-20.044977
334.119141	25.594934
332.234375	55.288448
330.347656	-50.214645
328.460938	88.134377
326.574219	19.743763
324.685547	61.315544
322.798828	53.845512
320.910156	33.134563
319.021484	-40.531429
317.132813	-18.907551
315.242188	-40.964764
313.351563	15.002886
311.460938	-11.074538
309.570313	32.902657
307.679688	-1.162670
305.787109	7.053463
303.896484	-54.812172
302.003906	-16.285086
300.111328	-28.004917
298.216797	11.741046
296.322266	-1.384128
294.429688	-27.765299
292.535156	50.063377
290.638672	-38.411236
288.744141	-17.447979
286.847656	-25.556927
284.951172	-19.227861
283.054688	16.024536
281.158203	39.327618
279.259766	29.617107
277.361328	23.781176
275.462891	-15.058412
273.564453	-47.386398
271.666016	78.164444
269.765625	-0.406791
267.865234	-13.256757
265.964844	-95.922012
264.064453	26.502459
262.162109	-7.694482
260.261719	90.767151
258.359375	62.906521
256.457031	17.852575
254.552734	8.168715
252.650391	-12.160754
250.746094	14.661478
248.841797	66.272606
246.937500	21.900391
245.031250	50.888798
243.126953	28.533512
241.220703	36.201870
239.314453	86.974022
237.406250	18.253639
235.500000	26.712183
233.591797	20.576775
231.683594	-32.911476
229.775391	88.953865
227.865234	-4.200879
225.957031	-15.041870
224.046875	0.097142
222.136719	-29.485344
220.226563	-10.867085
218.314453	40.221611
216.402344	-24.040043
214.490234	27.855570
212.578125	-49.941227
210.666016	36.718079
208.751953	-67.695297
206.839844	-20.796631
204.925781	-44.721371
203.009766	5.514586
201.095703	21.487993
