#Wave		#Intensity
4001.644531	6064.514648
4000.500000	6068.882324
3999.354492	6080.870117
3998.209961	6071.022461
3997.064453	5969.507813
3995.918945	6136.444824
3994.772461	5917.135742
3993.626953	5865.877441
3992.480469	5997.844238
3991.333984	6086.149414
3990.187500	6102.474609
3989.040039	6073.017090
3987.893555	6095.876465
3986.746094	6144.875488
3985.598633	5999.958008
3984.451172	6062.025391
3983.302734	5984.688477
3982.154297	5926.976563
3981.006836	5986.845703
3979.857422	6016.219238
3978.708984	6121.750488
3977.560547	5987.900391
3976.411133	6143.432129
3975.261719	6077.053223
3974.112305	6043.317383
3972.961914	6137.874023
3971.811523	5906.319824
3970.662109	6024.774414
3969.511719	5958.476563
3968.360352	6037.769531
3967.209961	6006.249023
3966.058594	6037.723145
3964.907227	6086.557129
3963.755859	5909.583984
3962.604492	6073.467285
3961.452148	5998.562988
3960.299805	5915.006348
3959.147461	6072.289063
3957.995117	5977.903809
3956.841797	6085.237305
3955.689453	6092.791992
3954.536133	6022.300293
3953.382813	6032.030762
3952.228516	6002.750000
3951.075195	6075.312500
3949.920898	6041.701660
3948.766602	5899.809570
3947.612305	6173.738281
3946.458008	5979.912109
3945.302734	6022.105957
3944.147461	6135.704590
3942.992188	6045.856934
3941.836914	5964.696289
3940.680664	6110.687988
3939.525391	6100.913086
3938.369141	5987.352051
3937.211914	6005.707520
3936.055664	6071.608398
3934.898438	5990.530762
3933.742188	5972.143066
3932.584961	6120.104004
3931.426758	6095.218750
3930.269531	6027.152344
3929.111328	5894.337891
3927.953125	5983.918457
3926.794922	6004.399414
3925.636719	6048.610352
3924.477539	6116.536621
3923.319336	6065.796875
3922.160156	6138.008301
3921.000000	6115.314941
3919.840820	6140.059570
3918.680664	6087.196289
3917.520508	6014.955566
3916.360352	5985.836426
3915.200195	5991.196777
3914.040039	6147.330078
3912.878906	6032.060059
3911.717773	5990.039063
3910.556641	6126.710938
3909.394531	6147.105469
3908.233398	6066.350586
3907.071289	6164.204102
3905.909180	5919.987305
3904.746094	6015.680176
3903.583984	6059.729004
3902.420898	6286.508789
3901.257813	6192.918457
3900.094727	6159.539063
3898.931641	6255.098145
3897.767578	6114.300293
3896.603516	6104.580566
3895.439453	6139.963867
3894.275391	6037.913574
3893.111328	6176.341797
3891.946289	6027.101074
3890.781250	6105.391602
3889.616211	6215.836914
3888.451172	6043.073242
3887.285156	5994.772461
3886.119141	6180.231445
3884.953125	6099.761719
3883.787109	6105.067383
3882.620117	6080.365234
3881.454102	6004.243652
3880.287109	6206.667969
3879.120117	6064.146973
3877.952148	6080.161133
3876.785156	6100.451172
3875.617188	6159.269531
3874.449219	6181.677246
3873.281250	6086.373047
3872.112305	5980.404785
3870.944336	6107.657715
3869.775391	6232.724609
3868.606445	6212.327148
3867.436523	6318.084473
3866.267578	6083.908203
3865.097656	6176.826172
3863.927734	6226.971191
3862.757813	6236.503418
3861.587891	6002.513672
3860.416992	6044.119141
3859.246094	6130.551270
3858.075195	6108.069336
3856.904297	6200.860840
3855.732422	6060.994629
3854.560547	6192.167969
3853.388672	6182.489746
3852.216797	6138.687988
3851.044922	6060.780273
3849.872070	6144.947266
3848.699219	6088.384766
3847.526367	6146.938477
3846.353516	6160.718750
3845.179688	6157.449219
3844.005859	6154.180664
3842.832031	6074.239258
3841.658203	6119.963379
3840.484375	6137.992676
3839.309570	6090.027344
3838.134766	6291.083984
3836.959961	6081.391113
3835.785156	6158.981934
3834.609375	6166.351074
3833.434570	6120.550293
3832.258789	6208.721191
3831.082031	6186.313477
3829.906250	6293.568848
3828.729492	6160.648438
3827.552734	6165.882324
3826.375977	6209.351563
3825.199219	6263.423828
3824.021484	6243.152832
3822.844727	6199.534668
3821.666992	6158.055176
3820.489258	6248.175781
3819.310547	6227.921387
3818.131836	6154.635254
3816.954102	6178.949707
3815.774414	6256.273926
3814.595703	6195.744629
3813.416992	6150.077637
3812.237305	6240.081055
3811.057617	6209.256348
3809.877930	6184.799316
3808.697266	6170.942871
3807.516602	6186.744141
3806.336914	6098.774902
3805.155273	6125.168945
3803.974609	6306.082520
3802.792969	6232.954590
3801.612305	6299.513672
3800.430664	6234.875977
3799.248047	6185.069336
3798.066406	6262.173340
3796.883789	6208.150391
3795.701172	6228.140625
3794.518555	6400.310059
3793.335938	6130.731934
3792.152344	6226.790039
3790.968750	6324.924316
3789.785156	6264.611816
3788.601563	6130.409668
3787.417969	6228.506348
3786.233398	6309.679199
3785.048828	6300.066406
3783.864258	6330.550781
3782.678711	6272.412109
3781.494141	6254.373047
3780.308594	6187.833496
3779.123047	6188.793945
3777.937500	6356.303711
3776.750977	6211.791504
3775.564453	6450.887207
3774.377930	6247.413086
3773.191406	6218.867188
3772.004883	6160.843262
3770.817383	6258.676270
3769.629883	6282.780273
3768.442383	6374.238281
3767.254883	6244.667480
3766.066406	6310.846191
3764.878906	6187.646973
3763.690430	6194.912109
3762.500977	6136.976563
3761.312500	6325.084961
3760.123047	6347.036133
3758.933594	6379.488770
3757.744141	6109.301270
3756.554688	6320.386719
3755.364258	6317.111816
3754.173828	6366.348145
3752.983398	6323.165039
3751.792969	6418.573242
3750.602539	6356.502441
3749.411133	6361.617676
3748.219727	6385.617188
3747.028320	6243.859375
3745.835938	6314.020020
3744.644531	6463.851563
3743.452148	6439.583984
3742.259766	6448.869141
3741.067383	6386.882813
3739.874023	6396.174316
3738.680664	6413.842773
3737.487305	6391.700684
3736.293945	6346.526367
3735.100586	6525.444824
3733.906250	6425.823730
3732.711914	6324.145508
3731.517578	6419.247559
3730.323242	6384.571289
3729.127930	6452.427246
3727.932617	6434.492188
3726.737305	6447.935059
3725.541992	6371.457031
3724.345703	6280.373047
3723.150391	6454.787598
3721.954102	6478.665039
3720.757813	6387.610840
3719.560547	6292.411621
3718.364258	6495.935547
3717.166992	6509.344727
3715.969727	6458.022461
3714.771484	6404.630859
3713.574219	6528.668945
3712.375977	6477.370605
3711.177734	6517.892090
3709.979492	6470.786621
3708.780273	6334.016113
3707.582031	6420.416016
3706.382813	6515.123047
3705.183594	6580.611816
3703.983398	6548.125000
3702.784180	6559.407227
3701.583984	6566.518555
3700.383789	6659.025391
3699.182617	6559.906738
3697.982422	6485.810059
3696.781250	6384.678223
3695.580078	6662.389160
3694.378906	6673.632813
3693.177734	6641.180664
3691.975586	6795.956543
3690.773438	6601.268555
3689.571289	6558.450195
3688.369141	6663.257324
3687.166016	6734.767090
3685.962891	6648.303223
3684.759766	6593.039551
3683.556641	6668.676270
3682.352539	6750.516113
3681.149414	6655.805664
3679.945313	6685.708984
3678.740234	6840.155762
3677.536133	6768.312012
3676.331055	6711.020508
3675.126953	6732.590820
3673.920898	6851.647949
3672.715820	6854.517578
3671.510742	6871.900879
3670.304688	6939.034668
3669.098633	6560.485840
3667.891602	6824.533203
3666.685547	6939.294434
3665.478516	6853.061035
3664.271484	6998.842285
3663.064453	6875.353516
3661.857422	6950.678223
3660.649414	7036.325684
3659.441406	6929.455566
3658.233398	6847.457520
3657.025391	6997.212402
3655.816406	7035.208496
3654.607422	7143.508301
3653.398438	7166.987793
3652.189453	7072.615723
3650.980469	7131.238281
3649.770508	7082.373535
3648.560547	7031.459961
3647.350586	7141.703125
3646.139648	7127.976074
3644.929688	7145.229980
3643.718750	7189.318359
3642.507813	7299.448242
3641.295898	7223.782227
3640.084961	7346.245117
3638.873047	7183.945313
3637.661133	7260.987793
3636.449219	7232.819336
3635.236328	7417.047852
3634.023438	7421.846191
3632.810547	7331.825195
3631.597656	7419.070801
3630.384766	7333.204590
3629.170898	7414.236328
3627.957031	7316.043945
3626.743164	7471.183105
3625.529297	7558.319824
3624.314453	7474.563965
3623.099609	7294.106445
3621.884766	7521.154297
3620.669922	7595.870605
3619.454102	7598.562988
3618.239258	7500.480469
3617.023438	7589.550781
3615.806641	7528.511230
3614.590820	7707.982910
3613.374023	7609.951172
3612.157227	7711.261719
3610.940430	7744.741211
3609.723633	7634.433594
3608.505859	7774.698242
3607.288086	7693.169922
3606.070313	7802.579102
3604.852539	7872.951172
3603.633789	7947.400879
3602.415039	7828.970703
3601.196289	7823.401855
3599.977539	8100.852051
3598.758789	7832.773926
3597.539063	7905.109863
3596.319336	7864.684570
3595.099609	7896.000000
3593.878906	8037.945801
3592.659180	7946.303711
3591.438477	8041.078125
3590.217773	8127.625977
3588.996094	7997.116699
3587.775391	7938.301758
3586.553711	8129.196777
3585.332031	8199.291016
3584.109375	8326.643555
3582.887695	8120.535156
3581.665039	8096.516602
3580.442383	8276.977539
3579.219727	8324.489258
3577.996094	8218.687500
3576.773438	8245.755859
3575.549805	8338.195313
3574.325195	8273.304688
3573.101563	8426.976563
3571.876953	8276.328125
3570.652344	8329.899414
3569.427734	8512.049805
3568.203125	8453.308594
3566.977539	8388.467773
3565.752930	8505.219727
3564.526367	8570.934570
3563.300781	8550.972656
3562.075195	8522.861328
3560.848633	8521.261719
3559.622070	8621.571289
3558.395508	8544.553711
3557.167969	8567.399414
3555.940430	8690.050781
3554.712891	8539.743164
3553.485352	8766.203125
3552.257813	8746.234375
3551.029297	8819.906250
3549.800781	8777.546875
3548.572266	8708.750977
3547.343750	8766.112305
3546.114258	8843.791016
3544.884766	8838.063477
3543.655273	9027.526367
3542.425781	8924.187500
3541.195313	9146.082031
3539.965820	8951.315430
3538.734375	9018.711914
3537.503906	9098.269531
3536.273438	9086.405273
3535.041992	8954.742188
3533.810547	9009.903320
3532.579102	9010.240234
3531.346680	9223.663086
3530.115234	9197.581055
3528.882813	9177.593750
3527.650391	9386.807617
3526.416992	9293.788086
3525.184570	9338.672852
3523.951172	9458.543945
3522.717773	9250.038086
3521.483398	9461.066406
3520.250000	9382.299805
3519.015625	9374.458008
3517.781250	9544.837891
3516.545898	9476.222656
3515.311523	9549.344727
3514.076172	9549.571289
3512.840820	9721.812500
3511.605469	9766.518555
3510.369141	9663.534180
3509.133789	9744.640625
3507.897461	9676.075195
3506.660156	9797.583008
3505.423828	9729.032227
3504.186523	9787.831055
3502.949219	9759.719727
3501.711914	9757.882813
3500.474609	9717.667969
3499.236328	9810.754883
3497.998047	9750.352539
3496.759766	9770.722656
3495.521484	9817.323242
3494.282227	10091.937500
3493.042969	10196.969727
3491.803711	10009.464844
3490.564453	9902.703125
3489.324219	10027.875000
3488.084961	9999.776367
3486.844727	10130.928711
3485.603516	10221.724609
3484.363281	9967.929688
3483.122070	10074.837891
3481.880859	10221.989258
3480.639648	10099.234375
3479.397461	10115.451172
3478.156250	10312.835938
3476.914063	10405.487305
3475.671875	10329.070313
3474.428711	10331.146484
3473.186523	10252.760742
3471.943359	10399.652344
3470.700195	10269.001953
3469.456055	10389.699219
3468.212891	10508.340820
3466.968750	10363.674805
3465.724609	10341.626953
3464.479492	10309.542969
3463.235352	10486.354492
3461.990234	10363.888672
3460.745117	10534.598633
3459.499023	10550.676758
3458.253906	10426.260742
3457.007813	10470.444336
3455.761719	10478.500000
3454.515625	10580.826172
3453.268555	10452.484375
3452.021484	10364.292969
3450.775391	10328.255859
3449.527344	10420.509766
3448.280273	10526.755859
3447.032227	10554.821289
3445.784180	10679.029297
3444.536133	10434.671875
3443.287109	10398.660156
3442.039063	10416.716797
3440.790039	10412.748047
3439.541016	10260.682617
3438.291016	10416.817383
3437.041992	10462.863281
3435.791992	10638.901367
3434.541992	10418.914063
3433.291016	10520.915039
3432.041016	10472.949219
3430.790039	10558.911133
3429.539063	10470.989258
3428.287109	10461.018555
3427.036133	10514.971680
3425.784180	10600.858398
3424.532227	10662.750977
3423.280273	10532.966797
3422.027344	10491.054688
3420.774414	10335.407227
3419.521484	10435.210938
3418.268555	10417.278320
3417.014648	10509.049805
3415.761719	10283.720703
3414.507813	10608.750000
3413.252930	10437.306641
3411.999023	10387.500977
3410.744141	10427.380859
3409.489258	10419.430664
3408.234375	10481.199219
3406.978516	10381.632813
3405.723633	10317.944336
3404.467773	10421.500977
3403.210938	10373.750000
3401.955078	10439.446289
3400.698242	10332.021484
3399.441406	10355.925781
3398.184570	10208.778320
3396.927734	10294.338867
3395.669922	10167.139648
3394.412109	10379.888672
3393.154297	10367.986328
3391.896484	10215.013672
3390.637695	10300.489258
3389.378906	9988.688477
3388.120117	10155.592773
3386.861328	10237.058594
3385.601563	10195.417969
3384.341797	10405.850586
3383.082031	10132.025391
3381.822266	10147.960938
3380.561523	10078.596680
3379.300781	10261.125000
3378.040039	10171.935547
3376.779297	10175.955078
3375.517578	10179.972656
3374.256836	10156.245117
3372.995117	10011.664063
3371.732422	10089.003906
3370.470703	10037.577148
3369.208008	9974.288086
3367.945313	10023.872070
3366.682617	9913.101563
3365.418945	10016.112305
3364.155273	9923.193359
3362.891602	9933.180664
3361.627930	10030.194336
3360.363281	9963.032227
3359.099609	9923.575195
3357.834961	9854.480469
3356.569336	10044.327148
3355.304688	9917.927734
3354.039063	10026.685547
3352.773438	9864.781250
3351.507813	9732.562500
3350.241211	10032.826172
3348.975586	9940.108398
3347.708984	9833.608398
3346.442383	9679.786133
3345.174805	9871.310547
3343.907227	9755.019531
3342.639648	9721.610352
3341.372070	9863.716797
3340.104492	9806.639648
3338.835938	9879.683594
3337.567383	9720.140625
3336.298828	9763.615234
3335.029297	9877.996094
3333.760742	9600.360352
3332.491211	9801.377930
3331.221680	9813.298828
3329.951172	9854.743164
3328.681641	9659.986328
3327.411133	9658.150391
3326.139648	9705.501953
3324.869141	9815.781250
3323.597656	9737.213867
3322.327148	9796.320313
3321.054688	9770.866211
3319.783203	9747.387695
3318.510742	9731.778320
3317.238281	9645.439453
3315.965820	9790.941406
3314.693359	9657.485352
3313.419922	9429.820313
3312.146484	9630.251953
3310.873047	9512.604492
3309.599609	9648.178711
3308.325195	9707.172852
3307.050781	9560.148438
3305.776367	9625.020508
3304.501953	9613.383789
3303.226563	9644.887695
3301.951172	9674.417969
3300.675781	9721.577148
3299.400391	9596.271484
3298.124023	9637.547852
3296.847656	9494.674805
3295.571289	9616.253906
3294.294922	9522.390625
3293.017578	9514.705078
3291.740234	9675.356445
3290.462891	9708.741211
3289.185547	9503.402344
3287.907227	9538.761719
3286.628906	9503.695313
3285.350586	9656.372070
3284.072266	9650.622070
3282.792969	9556.910156
3281.513672	9674.308594
3280.234375	9619.706055
3278.955078	9678.437500
3277.674805	9655.107422
3276.394531	9553.668945
3275.114258	9667.048828
3273.833984	9620.306641
3272.552734	9565.775391
3271.272461	9538.583984
3269.990234	9605.052734
3268.708984	9638.333984
3267.426758	9519.478516
3266.145508	9589.811523
3264.862305	9547.042969
3263.580078	9514.035156
3262.296875	9666.178711
3261.014648	9568.861328
3259.731445	9491.061523
3258.447266	9541.839844
3257.164063	9651.018555
3255.879883	9501.208008
3254.595703	9635.657227
3253.310547	9511.207031
3252.026367	9542.472656
3250.741211	9470.614258
3249.456055	9424.069336
3248.169922	9472.834961
3246.884766	9472.971680
3245.598633	9465.332031
3244.312500	9323.583984
3243.025391	9623.009766
3241.739258	9595.915039
3240.452148	9570.773438
3239.165039	9574.773438
3237.876953	9448.671875
3236.589844	9514.816406
3235.301758	9417.889648
3234.013672	9484.014648
3232.724609	9425.934570
3231.436523	9536.650391
3230.147461	9282.687500
3228.857422	9406.960938
3227.568359	9469.144531
3226.278320	9343.276367
3224.989258	9405.447266
3223.698242	9355.208008
3222.408203	9551.028320
3221.117188	9349.696289
3219.826172	9440.866211
3218.535156	9386.784180
3217.244141	9454.680664
3215.952148	9325.131836
3214.660156	9365.921875
3213.368164	9308.024414
3212.076172	9406.832031
3210.783203	9267.719727
3209.490234	9395.500977
3208.197266	9492.300781
3206.903320	9438.297852
3205.610352	9243.240234
3204.316406	9363.198242
3203.022461	9293.794922
3201.727539	9268.840820
3200.432617	9270.929688
3199.137695	9168.761719
3197.842773	9234.567383
3196.547852	9306.138672
3195.251953	9281.203125
3193.956055	9435.692383
3192.660156	9277.651367
3191.363281	9262.376953
3190.067383	9254.819336
3188.770508	9299.313477
3187.472656	9305.243164
3186.175781	9245.652344
3184.877930	9384.525391
3183.580078	9280.637695
3182.282227	9221.083984
3180.983398	9246.275391
3179.684570	9113.595703
3178.385742	9181.142578
3177.086914	9173.610352
3175.788086	9310.383789
3174.488281	9187.410156
3173.188477	9031.786133
3171.887695	9193.504883
3170.587891	9226.349609
3169.287109	9134.239258
3167.986328	9199.751953
3166.685547	9186.460938
3165.383789	9190.463867
3164.082031	9146.446289
3162.780273	9106.286133
3161.478516	9127.581055
3160.175781	9062.484375
3158.873047	8991.654297
3157.570313	9120.414063
3156.267578	9107.154297
3154.963867	9051.700195
3153.660156	9149.688477
3152.356445	9124.924805
3151.052734	9188.353516
3149.748047	9035.174805
3148.443359	9027.693359
3147.138672	9190.731445
3145.833984	9033.807617
3144.528320	9056.971680
3143.222656	9034.170898
3141.916992	9151.134766
3140.610352	9032.619141
3139.304688	8971.559570
3137.998047	9182.221680
3136.691406	9025.506836
3135.383789	9144.269531
3134.076172	9236.214844
3132.768555	8918.979492
3131.460938	8951.674805
3130.153320	9041.691406
3128.844727	8936.773438
3127.536133	8969.444336
3126.227539	9042.214844
3124.917969	9059.575195
3123.608398	8895.541992
3122.298828	8916.741211
3120.989258	8899.759766
3119.678711	9023.993164
3118.369141	9077.586914
3117.057617	9117.808594
3115.747070	8957.764648
3114.436523	8929.348633
3113.125000	8866.628906
3111.813477	8889.703125
3110.500977	9061.409180
3109.189453	8954.876953
3107.876953	8934.106445
3106.564453	8953.338867
3105.250977	8978.276367
3103.937500	8885.166992
3102.625000	9012.893555
3101.310547	8969.292969
3099.997070	8813.446289
3098.682617	8899.260742
3097.368164	8926.079102
3096.053711	8920.558594
3094.739258	8907.435547
3093.423828	8947.541992
3092.108398	8807.081055
3090.792969	9003.004883
3089.476563	8963.276367
3088.160156	8877.976563
3086.843750	8904.753906
3085.527344	9056.835938
3084.210938	8954.480469
3082.893555	8863.552734
3081.576172	8962.419922
3080.257813	8928.441406
3078.940430	8974.144531
3077.622070	8923.107422
3076.303711	8925.181641
3074.984375	8747.155273
3073.666016	8806.124023
3072.346680	8863.174805
3071.027344	9030.095703
3069.707031	8893.859375
3068.387695	8799.341797
3067.067383	8915.049805
3065.747070	9032.606445
3064.425781	9072.508789
3063.104492	8872.047852
3061.783203	8896.829102
3060.461914	8921.599609
3059.140625	9040.929688
3057.818359	9037.296875
3056.496094	8995.850586
3055.173828	8984.665039
3053.850586	8979.153320
3052.527344	8967.974609
3051.204102	9005.918945
3049.880859	9075.958984
3048.556641	9068.543945
3047.233398	8985.605469
3045.909180	9078.260742
3044.583984	8917.968750
3043.259766	8982.294922
3041.934570	9152.250000
3040.608398	8803.403320
3039.283203	9043.106445
3037.957031	8997.993164
3036.630859	8981.174805
3035.304688	8904.047852
3033.978516	9203.848633
3032.651367	9092.792969
3031.324219	9094.805664
3029.997070	8835.024414
3028.668945	8891.693359
3027.341797	8969.048828
3026.013672	9125.431641
3024.684570	9035.218750
3023.356445	9069.224609
3022.027344	9223.614258
3020.698242	9065.722656
3019.368164	9206.888672
3018.039063	9007.697266
3016.708984	9094.306641
3015.378906	9066.238281
3014.047852	9128.374023
3012.717773	8921.834961
3011.386719	9192.466797
3010.055664	9031.065430
3008.723633	9222.711914
3007.392578	9085.769531
3006.060547	9160.964844
3004.727539	9151.688477
3003.395508	9219.336914
3002.062500	9112.511719
3000.729492	9285.163086
2999.396484	9120.239258
2998.062500	9071.609375
2996.728516	9266.659180
2995.394531	9111.202148
2994.060547	9116.934570
2992.725586	9147.016602
2991.390625	9150.866211
2990.055664	9207.144531
2988.720703	9259.656250
2987.384766	9274.710938
2986.048828	9241.102539
2984.712891	9289.833984
2983.376953	9153.345703
2982.040039	9312.423828
2980.703125	9235.823242
2979.366211	9331.255859
2978.028320	9133.177734
2976.690430	9378.104492
2975.352539	9499.612305
2974.014648	9206.338867
2972.675781	9213.895508
2971.336914	9359.639648
2969.998047	9286.878906
2968.659180	9272.013672
2967.319336	9404.595703
2965.979492	9242.298828
2964.639648	9249.836914
2963.299805	9266.698242
2961.958984	9169.792969
2960.618164	9153.099609
2959.277344	9322.833008
2957.935547	9328.481445
2956.593750	9529.792969
2955.251953	9369.582031
2953.910156	9358.453125
2952.567383	9276.556641
2951.225586	9308.275391
2949.881836	9285.993164
2948.539063	9259.996094
2947.195313	9410.798828
2945.852539	9533.632813
2944.507813	9535.504883
2943.164063	9316.052734
2941.819336	9258.460938
2940.474609	9457.453125
2939.129883	9503.947266
2937.784180	9232.632813
2936.439453	9474.248047
2935.093750	9457.548828
2933.747070	9522.579102
2932.401367	9374.030273
2931.054688	9463.185547
2929.708008	9461.349609
2928.360352	9414.972656
2927.013672	9368.612305
2925.666016	9429.870117
2924.318359	9403.927734
2922.969727	9522.642578
2921.621094	9487.419922
2920.272461	9205.664063
2918.923828	9335.466797
2917.575195	9276.210938
2916.225586	9515.255859
2914.875977	9348.552734
2913.525391	9441.186523
2912.175781	9504.158203
2910.825195	9518.973633
2909.474609	9502.318359
2908.123047	9402.395508
2906.772461	9524.528320
2905.420898	9378.395508
2904.069336	9502.333984
2902.716797	9620.676758
2901.364258	9506.037109
2900.011719	9439.497070
2898.659180	9535.606445
2897.305664	9520.819336
2895.953125	9555.914063
2894.599609	9470.946289
2893.245117	9620.522461
2891.891602	9496.803711
2890.537109	9648.161133
2889.181641	9648.130859
2887.827148	9470.968750
2886.471680	9827.009766
2885.116211	9555.816406
2883.760742	9594.526367
2882.405273	9511.539063
2881.048828	9531.808594
2879.692383	9603.672852
2878.334961	9653.397461
2876.978516	9544.668945
2875.621094	9717.791016
2874.263672	9679.069336
2872.905273	9717.691406
2871.547852	9601.669922
2870.189453	9769.123047
2868.830078	9776.421875
2867.471680	9550.071289
2866.112305	9566.606445
2864.752930	9906.801758
2863.393555	9724.683594
2862.033203	9913.973633
2860.672852	9623.485352
2859.312500	9665.713867
2857.952148	9735.483398
2856.590820	9777.671875
2855.229492	9816.170898
2853.868164	9817.931641
2852.505859	9753.601563
2851.144531	9746.195313
2849.782227	9795.678711
2848.418945	9746.067383
2847.056641	9903.757813
2845.693359	9744.102539
2844.330078	9898.064453
2842.965820	9698.139648
2841.602539	9901.538086
2840.238281	9866.621094
2838.874023	10020.437500
2837.508789	10091.758789
2836.143555	9961.584961
2834.778320	9891.889648
2833.413086	10049.240234
2832.046875	9780.036133
2830.681641	9865.972656
2829.314453	9790.859375
2827.948242	9946.275391
2826.581055	9957.138672
2825.214844	9955.196289
2823.846680	9838.071289
2822.479492	9956.795898
2821.111328	10059.025391
2819.743164	9929.156250
2818.375000	9994.812500
2817.005859	10080.535156
2815.636719	10031.086914
2814.267578	9831.942383
2812.898438	10032.647461
2811.528320	9862.781250
2810.158203	10101.719727
2808.788086	10006.704102
2807.416992	10154.320313
2806.046875	10108.569336
2804.675781	10050.072266
2803.303711	9958.785156
2801.932617	10080.776367
2800.560547	10149.875000
2799.188477	10100.522461
2797.815430	10138.623047
2796.443359	10278.693359
2795.070313	9970.788086
2793.696289	10220.063477
2792.323242	10083.378906
2790.949219	29408.958984
2789.575195	12517.423828
2788.201172	10104.752930
2786.826172	9997.293945
2785.451172	10144.442383
2784.076172	10104.282227
2782.701172	10104.124023
2781.325195	10089.427734
2779.949219	10245.525391
2778.573242	10112.730469
2777.196289	10328.695313
2775.819336	10132.380859
2774.442383	10079.565430
2773.065430	10295.409180
2771.687500	10197.211914
2770.309570	10088.166016
2768.931641	10381.884766
2767.553711	10376.225586
2766.174805	10176.540039
2764.795898	10265.198242
2763.416992	10167.119141
2762.037109	10261.179688
2760.657227	10248.299805
2759.277344	10266.220703
2757.897461	10255.155273
2756.516602	10327.393555
2755.135742	10236.655273
2753.754883	10316.108398
2752.373047	10198.260742
2750.991211	10272.260742
2749.609375	10134.566406
2748.227539	10141.625000
2746.844727	10347.603516
2745.461914	10318.455078
2744.079102	10123.011719
2742.696289	10473.457031
2741.312500	10487.667969
2739.928711	10200.166992
2738.544922	10389.631836
2737.160156	10331.613281
2735.775391	10336.810547
2734.390625	10374.498047
2733.005859	10269.588867
2731.620117	10321.709961
2730.234375	10408.088867
2728.848633	10510.667969
2727.461914	10445.487305
2726.076172	10382.133789
2724.689453	10491.867188
2723.301758	10372.655273
2721.915039	10390.443359
2720.527344	10539.745117
2719.138672	10559.292969
2717.750977	10427.552734
2716.362305	10515.537109
2714.973633	10544.078125
2713.584961	10408.816406
2712.195313	10435.566406
2710.806641	10510.883789
2709.416016	10319.942383
2708.026367	10452.803711
2706.635742	10605.390625
2705.245117	10601.511719
2703.854492	10620.999023
2702.462891	10721.346680
2701.072266	10604.251953
2699.680664	10596.780273
2698.288086	10813.813477
2696.896484	10587.231445
2695.503906	10493.590820
2694.110352	10672.821289
2692.717773	10586.377930
2691.324219	10665.039063
2689.930664	10537.371094
2688.537109	10694.926758
2687.142578	10644.409180
2685.748047	10649.488281
2684.353516	10702.962891
2682.958984	10681.145508
2681.563477	10702.339844
2680.167969	10784.433594
2678.771484	10735.745117
2677.375977	10685.285156
2675.979492	10713.620117
2674.583008	10729.414063
2673.185547	10704.038086
2671.789063	10814.661133
2670.391602	10832.212891
2668.993164	10890.895508
2667.595703	10870.870117
2666.197266	10761.457031
2664.798828	10730.739258
2663.400391	10859.093750
2662.000977	10714.008789
2660.601563	10760.136719
2659.202148	10986.647461
2657.801758	10727.329102
2656.401367	10805.563477
2655.000977	10742.743164
2653.600586	10738.843750
2652.199219	10949.073242
2650.797852	10788.137695
2649.396484	10853.793945
2647.995117	10874.839844
2646.592773	10858.434570
2645.190430	10993.560547
2643.787109	10959.313477
2642.384766	10903.697266
2640.981445	10824.941406
2639.578125	10872.683594
2638.173828	10774.374023
2636.769531	10820.325195
2635.365234	11006.893555
2633.960938	11013.624023
2632.555664	10835.284180
2631.150391	10950.572266
2629.745117	11030.238281
2628.339844	11134.769531
2626.933594	11059.673828
2625.527344	10934.830078
2624.121094	10978.885742
2622.713867	11088.674805
2621.306641	11011.868164
2619.899414	10945.748047
2618.492188	11057.252930
2617.083984	10932.553711
2615.675781	10830.981445
2614.266602	10958.415039
2612.858398	11002.392578
2611.449219	11056.998047
2610.040039	11015.791016
2608.629883	10990.561523
2607.220703	10938.744141
2605.810547	11140.460938
2604.399414	11092.177734
2602.989258	11033.280273
2601.578125	11015.157227
2600.166992	10938.583008
2598.754883	10902.772461
2597.343750	10969.678711
2595.930664	11142.781250
2594.518555	11122.880859
2593.106445	11078.211914
2591.693359	11162.721680
2590.280273	11077.375000
2588.866211	11137.088867
2587.452148	11262.206055
2586.038086	11251.141602
2584.624023	11114.582031
2583.208984	11151.265625
2581.794922	11297.481445
2580.378906	10964.906250
2578.963867	10968.038086
2577.547852	11202.493164
2576.131836	11269.132813
2574.715820	11235.133789
2573.298828	11292.916016
2571.881836	11213.047852
2570.464844	11334.317383
2569.047852	11228.015625
2567.629883	11395.082031
2566.211914	11183.025391
2564.793945	11362.373047
2563.375000	11280.819336
2561.956055	11248.634766
2560.537109	11304.543945
2559.118164	11251.230469
2557.698242	11351.139648
2556.278320	11327.766602
2554.857422	11339.607422
2553.437500	11597.831055
2552.016602	11342.159180
2550.595703	11392.690430
2549.173828	11290.180664
2547.752930	11382.906250
2546.330078	11414.058594
2544.908203	11404.767578
2543.485352	11571.227539
2542.063477	11542.580078
2540.639648	11317.182617
2539.216797	11314.942383
2537.792969	11526.943359
2536.369141	11642.294922
2534.945313	11620.680664
2533.520508	11551.686523
2532.095703	11403.758789
2530.670898	11620.792969
2529.245117	11457.123047
2527.819336	11586.376953
2526.393555	11571.807617
2524.967773	11634.374023
2523.541016	11672.378906
2522.114258	11456.289063
2520.687500	11748.340820
2519.260742	11681.204102
2517.833008	11673.634766
2516.405273	11660.815430
2514.976563	11742.528320
2513.547852	11531.928711
2512.119141	11505.144531
2510.690430	11630.575195
2509.261719	11642.261719
2507.832031	11473.817383
2506.402344	11737.305664
2504.971680	11691.274414
2503.541016	11599.820313
2502.110352	11709.352539
2500.679688	11717.511719
2499.248047	11599.903320
2497.816406	11801.925781
2496.384766	11712.283203
2494.953125	11741.380859
2493.520508	11817.589844
2492.087891	11792.559570
2490.655273	11708.220703
2489.221680	11664.033203
2487.788086	11825.648438
2486.354492	11797.146484
2484.919922	11770.398438
2483.485352	11917.950195
2482.050781	11657.685547
2480.616211	11822.622070
2479.180664	12055.424805
2477.745117	11920.674805
2476.309570	11808.612305
2474.873047	11797.562500
2473.437500	11870.058594
2472.000000	11954.707031
2470.563477	11992.346680
2469.125977	11920.385742
2467.688477	11984.101563
2466.250977	12039.098633
2464.812500	11991.506836
2463.374023	12025.622070
2461.935547	12110.117188
2460.497070	12057.326172
2459.057617	11714.472656
2457.618164	12026.481445
2456.177734	12020.617188
2454.738281	11953.994141
2453.297852	12166.835938
2451.857422	12032.534180
2450.416016	12016.260742
2448.974609	12055.500977
2447.533203	12084.318359
2446.091797	12120.060547
2444.649414	12102.046875
2443.207031	12250.428711
2441.764648	12192.538086
2440.321289	12151.996094
2438.877930	12296.813477
2437.434570	12212.968750
2435.990234	12179.370117
2434.546875	12078.269531
2433.101563	12278.370117
2431.657227	12007.703125
2430.211914	12455.142578
2428.766602	12267.576172
2427.321289	12325.663086
2425.875977	12366.435547
2424.429688	12191.097656
2422.983398	12180.027344
2421.536133	12293.379883
2420.089844	12472.340820
2418.642578	12393.851563
2417.194336	12251.493164
2415.747070	12185.164063
2414.298828	12225.893555
2412.849609	12394.330078
2411.401367	12474.690430
2409.952148	12389.389648
2408.502930	12361.044922
2407.052734	12455.159180
2405.603516	12397.499023
2404.152344	12384.682617
2402.703125	12444.262695
2401.251953	12502.093750
2399.800781	12551.287109
2398.349609	12509.165039
2396.898438	12475.669922
2395.445313	12431.856445
2393.994141	12465.528320
2392.541016	12432.059570
2391.087891	12618.870117
2389.634766	12588.824219
2388.181641	12720.483398
2386.728516	12848.649414
2385.275391	12679.297852
2383.820313	12375.920898
2382.365234	12608.922852
2380.910156	12695.763672
2379.455078	12562.654297
2378.000000	12733.637695
2376.544922	12569.659180
2375.089844	12666.738281
2373.632813	12756.911133
2372.175781	12553.547852
2370.718750	12703.766602
2369.261719	12754.415039
2367.804688	12767.305664
2366.347656	12603.543945
2364.888672	12690.188477
2363.429688	12788.796875
2361.972656	12683.403320
2360.513672	12901.926758
2359.054688	12885.641602
2357.593750	12996.120117
2356.134766	12871.927734
2354.673828	12728.949219
2353.214844	12692.165039
2351.753906	12922.402344
2350.292969	12796.609375
2348.832031	12775.230469
2347.369141	12800.043945
2345.908203	12828.267578
2344.445313	12962.491211
2342.984375	12794.074219
2341.521484	12904.321289
2340.058594	12831.676758
2338.593750	13064.881836
2337.130859	12985.400391
2335.667969	12929.860352
2334.203125	12987.034180
2332.738281	12931.513672
2331.273438	13002.317383
2329.808594	13003.126953
2328.343750	12894.746094
2326.878906	13054.211914
2325.412109	12968.032227
2323.945313	13120.597656
2322.478516	12990.115234
2321.011719	13154.544922
2319.544922	13240.521484
2318.078125	13225.943359
2316.611328	13122.794922
2315.142578	13052.044922
2313.673828	13093.700195
2312.205078	13106.397461
2310.736328	13192.276367
2309.267578	13201.543945
2307.798828	13222.716797
2306.328125	13197.954102
2304.859375	13122.180664
2303.388672	13150.156250
2301.917969	13249.517578
2300.447266	13189.074219
2298.974609	13094.668945
2297.503906	13238.152344
2296.031250	13201.525391
2294.560547	13448.522461
2293.087891	13152.085938
2291.615234	13351.459961
2290.142578	13358.964844
2288.667969	13240.895508
2287.195313	13356.999023
2285.720703	13428.952148
2284.246094	13373.685547
2282.773438	13248.923828
2281.296875	13388.661133
2279.822266	13065.646484
2278.347656	13486.653320
2276.871094	13534.771484
2275.396484	13386.384766
2273.919922	13429.421875
2272.443359	13543.552734
2270.966797	13393.558594
2269.488281	13423.026367
2268.011719	13515.090820
2266.533203	13512.375977
2265.056641	13462.301758
2263.578125	13515.404297
2262.099609	13637.807617
2260.619141	13528.570313
2259.140625	13596.835938
2257.662109	13697.179688
2256.181641	13718.079102
2254.701172	13610.599609
2253.220703	13596.042969
2251.740234	13672.665039
2250.259766	13701.990234
2248.777344	13711.049805
2247.296875	13814.598633
2245.814453	13855.684570
2244.332031	13771.937500
2242.849609	13534.762695
2241.367188	13618.028320
2239.884766	13596.748047
2238.400391	13717.042969
2236.917969	13817.070313
2235.433594	13679.516602
2233.949219	13732.347656
2232.464844	13808.733398
2230.978516	13999.575195
2229.494141	13998.441406
2228.009766	13963.647461
2226.523438	13849.784180
2225.037109	13865.501953
2223.550781	14081.365234
2222.064453	14006.221680
2220.576172	14151.354492
2219.089844	14124.972656
2217.601563	13991.041992
2216.115234	14107.523438
2214.626953	14192.039063
2213.138672	14110.240234
2211.648438	14182.964844
2210.160156	14107.915039
2208.669922	14227.609375
2207.181641	14124.048828
2205.691406	14210.131836
2204.201172	14158.620117
2202.710938	14190.988281
2201.218750	14315.572266
2199.728516	14304.304688
2198.236328	14331.593750
2196.744141	14449.368164
2195.251953	14409.593750
2193.759766	14373.184570
2192.267578	14474.128906
2190.775391	14241.800781
2189.281250	14359.470703
2187.787109	14374.987305
2186.294922	14439.029297
2184.800781	14389.267578
2183.304688	14483.390625
2181.810547	14532.316406
2180.316406	14477.547852
2178.820313	14382.676758
2177.324219	14717.415039
2175.828125	14572.397461
2174.332031	14642.972656
2172.835938	14693.472656
2171.337891	14692.177734
2169.841797	14610.732422
2168.343750	14736.331055
2166.845703	14598.157227
2165.347656	14671.974609
2163.849609	14548.883789
2162.351563	14619.343750
2160.851563	14706.451172
2159.353516	14821.870117
2157.853516	14682.173828
2156.353516	14900.888672
2154.853516	14612.918945
2153.353516	14878.208008
2151.851563	14928.506836
2150.351563	15065.385742
2148.849609	14805.918945
2147.347656	15001.032227
2145.845703	15041.275391
2144.343750	15202.979492
2142.839844	15204.897461
2141.337891	15013.860352
2139.833984	15029.119141
2138.330078	15059.334961
2136.826172	14883.401367
2135.322266	15147.983398
2133.818359	15026.938477
2132.314453	15128.566406
2130.808594	15020.861328
2129.302734	15178.912109
2127.796875	15235.615234
2126.291016	15174.432617
2124.785156	15066.800781
2123.279297	15282.790039
2121.771484	15125.407227
2120.263672	15125.664063
2118.757813	15507.342773
2117.250000	15404.723633
2115.740234	15419.839844
2114.232422	15610.629883
2112.724609	15401.999023
2111.214844	15253.092773
2109.705078	15412.327148
2108.195313	15367.805664
2106.685547	15565.031250
2105.175781	15694.306641
2103.664063	15489.217773
2102.154297	15552.267578
2100.642578	15686.426758
2099.130859	15617.089844
2097.619141	15574.237305
2096.107422	15600.842773
2094.595703	15660.495117
2093.082031	15849.031250
2091.570313	15933.392578
2090.056641	15660.888672
2088.542969	15791.499023
2087.029297	15798.206055
2085.513672	15875.902344
2084.000000	15813.259766
2082.484375	15720.936523
2080.968750	16019.696289
2079.455078	15929.016602
2077.937500	15831.775391
2076.421875	15817.021484
2074.906250	15818.759766
2073.388672	16097.412109
2071.873047	15927.701172
2070.355469	16084.291992
2068.837891	15982.189453
2067.320313	16240.816406
2065.800781	16049.803711
2064.283203	15990.572266
2062.763672	16150.278320
2061.244141	16036.742188
2059.724609	16160.175781
2058.205078	16300.007813
2056.685547	16209.533203
2055.164063	16270.370117
2053.644531	16385.431641
2052.123047	16306.498047
2050.601563	16363.988281
2049.080078	16350.807617
2047.558594	16513.392578
2046.035156	16541.242188
2044.513672	16427.871094
2042.990234	16424.533203
2041.466797	16559.064453
2039.943359	16572.109375
2038.419922	16370.226563
2036.896484	16421.029297
2035.371094	16609.568359
2033.847656	16602.912109
2032.322266	16789.697266
2030.796875	16450.296875
2029.271484	16420.734375
2027.744141	16810.587891
2026.218750	16758.029297
2024.691406	16811.939453
2023.164063	16775.775391
2021.636719	16701.972656
2020.109375	16618.380859
2018.582031	16929.169922
2017.054688	16986.257813
2015.525391	16932.097656
2013.996094	17088.912109
2012.468750	17062.544922
2010.939453	17037.824219
2009.408203	17052.333984
2007.878906	17065.203125
2006.347656	17076.431641
2004.818359	17020.691406
2003.287109	17028.656250
2001.755859	17240.699219
2000.224609	17408.580078
1998.691406	17289.166016
1997.160156	17016.423828
1995.626953	17242.974609
1994.093750	17311.224609
1992.560547	17087.562500
1991.027344	17137.880859
1989.494141	17313.689453
1987.960938	17414.458984
1986.425781	17368.548828
1984.890625	17526.279297
1983.355469	17415.216797
1981.820313	17199.986328
1980.285156	17229.041016
1978.750000	17507.113281
1977.212891	17606.066406
1975.675781	17597.597656
1974.138672	17613.529297
1972.601563	17569.279297
1971.064453	17554.314453
1969.527344	17716.554688
1967.988281	17556.908203
1966.451172	17663.828125
1964.912109	17668.349609
1963.373047	17620.886719
1961.833984	17787.814453
1960.292969	17873.488281
1958.753906	17738.349609
1957.212891	17892.164063
1955.671875	17755.451172
1954.130859	17922.175781
1952.589844	17978.533203
1951.048828	17991.080078
1949.505859	17765.281250
1947.964844	18153.943359
1946.421875	18083.789063
1944.878906	17997.457031
1943.335938	18037.523438
1941.792969	17910.742188
1940.248047	18052.830078
1938.705078	17984.380859
1937.160156	18168.478516
1935.615234	17978.652344
1934.070313	18059.119141
1932.525391	18256.027344
1930.978516	18338.017578
1929.433594	18292.228516
1927.886719	18167.234375
1926.339844	18226.562500
1924.792969	18240.613281
1923.246094	18446.931641
1921.699219	18477.083984
1920.150391	18247.195313
1918.601563	18354.882813
1917.052734	18443.152344
1915.503906	18424.853516
1913.955078	18629.261719
1912.406250	18689.988281
1910.855469	18610.349609
1909.306641	18627.509766
1907.755859	18643.048828
1906.205078	18624.724609
1904.654297	18617.691406
1903.101563	18833.039063
1901.550781	18671.294922
1899.998047	18773.787109
1898.447266	18789.269531
1896.894531	18836.949219
1895.339844	19052.025391
1893.787109	18721.402344
1892.234375	18788.373047
1890.679688	19025.847656
1889.125000	19181.191406
1887.570313	18882.972656
1886.015625	18705.458984
1884.460938	19134.044922
1882.906250	19170.304688
1881.349609	19241.900391
1879.792969	18988.949219
1878.236328	19232.410156
1876.679688	19292.705078
1875.123047	19238.980469
1873.566406	19222.195313
1872.007813	19386.767578
1870.449219	19246.408203
1868.890625	19205.566406
1867.332031	19320.316406
1865.773438	19556.888672
1864.214844	19419.812500
1862.654297	19637.029297
1861.093750	19620.181641
1859.533203	19661.021484
1857.972656	19660.193359
1856.412109	19680.185547
1854.851563	19773.824219
1853.289063	19734.546875
1851.728516	19922.570313
1850.166016	19792.062500
1848.603516	19773.601563
1847.039063	19999.886719
1845.476563	19651.939453
1843.914063	19846.175781
1842.349609	20040.330078
1840.785156	19965.892578
1839.220703	19893.082031
1837.656250	20194.146484
1836.091797	20148.470703
1834.525391	19860.070313
1832.958984	19878.345703
1831.392578	19898.208984
1829.826172	20141.501953
1828.259766	20134.173828
1826.693359	20051.865234
1825.125000	20310.923828
1823.558594	20101.037109
1821.990234	20320.117188
1820.421875	20306.376953
1818.853516	20546.041016
1817.285156	20449.402344
1815.714844	20344.837891
1814.144531	20394.808594
1812.576172	20616.736328
1811.005859	20655.484375
1809.433594	20600.302734
1807.863281	20543.548828
1806.292969	20531.369141
1804.720703	20517.603516
1803.148438	20769.443359
1801.576172	20725.419922
1800.003906	20641.667969
1798.431641	20742.324219
1796.857422	20787.320313
1795.285156	20781.455078
1793.710938	20845.482422
1792.136719	20548.974609
1790.562500	20814.675781
1788.986328	20950.089844
1787.412109	20958.476563
1785.835938	20949.402344
1784.259766	21049.798828
1782.683594	20894.777344
1781.107422	20942.808594
1779.531250	21003.503906
1777.955078	21190.988281
1776.376953	21108.964844
1774.798828	21015.882813
1773.220703	21204.830078
1771.642578	21227.388672
1770.064453	20966.476563
1768.484375	21201.226563
1766.906250	21274.421875
1765.326172	20955.101563
1763.746094	21457.109375
1762.166016	21313.476563
1760.583984	21403.980469
1759.003906	21337.898438
1757.421875	21614.912109
1755.841797	21400.230469
1754.259766	21631.285156
1752.675781	21508.326172
1751.093750	21549.701172
1749.511719	21700.031250
1747.927734	21706.609375
1746.343750	21526.898438
1744.759766	21868.119141
1743.175781	21548.001953
1741.591797	21669.771484
1740.005859	21633.753906
1738.421875	21969.933594
1736.835938	21755.695313
1735.250000	21818.990234
1733.664063	21976.824219
1732.076172	22046.347656
1730.490234	21709.382813
1728.902344	21698.599609
1727.316406	22057.894531
1725.728516	22147.806641
1724.138672	22018.876953
1722.550781	22058.396484
1720.962891	22124.648438
1719.373047	22076.031250
1717.783203	22275.937500
1716.193359	22192.710938
1714.603516	22438.103516
1713.013672	22161.537109
1711.421875	22625.273438
1709.830078	22383.345703
1708.240234	22311.173828
1706.648438	22526.439453
1705.054688	22791.863281
1703.462891	22702.376953
1701.871094	22554.851563
1700.277344	22793.423828
1698.683594	22774.589844
1697.089844	22512.630859
1695.496094	22702.441406
1693.902344	22757.330078
1692.306641	22849.816406
1690.710938	22945.398438
1689.117188	22904.611328
1687.521484	22738.505859
1685.923828	23048.636719
1684.328125	23031.339844
1682.730469	23037.533203
1681.134766	23078.162109
1679.537109	23240.843750
1677.939453	23257.941406
1676.341797	23492.478516
1674.742188	22994.933594
1673.144531	23312.304688
1671.544922	23290.281250
1669.945313	23344.855469
1668.345703	23446.291016
1666.746094	23428.935547
1665.144531	23427.207031
1663.544922	23447.343750
1661.943359	23604.880859
1660.341797	23557.839844
1658.740234	23613.832031
1657.138672	23583.970703
1655.535156	23644.613281
1653.933594	23479.046875
1652.330078	23483.539063
1650.726563	23717.232422
1649.123047	23863.529297
1647.519531	23768.185547
1645.914063	23682.228516
1644.310547	23652.392578
1642.705078	24019.753906
1641.099609	23982.070313
1639.494141	23785.591797
1637.888672	23892.736328
1636.281250	23946.921875
1634.675781	23971.517578
1633.068359	24215.451172
1631.460938	24037.785156
1629.853516	24049.902344
1628.244141	23918.982422
1626.636719	24296.394531
1625.027344	23985.205078
1623.417969	24065.681641
1621.808594	24161.658203
1620.199219	24181.492188
1618.589844	24333.300781
1616.978516	24348.429688
1615.369141	24036.056641
1613.757813	24347.630859
1612.146484	24412.390625
1610.535156	24545.373047
1608.921875	24394.498047
1607.310547	24417.339844
1605.697266	24359.562500
1604.083984	24647.425781
1602.470703	24538.484375
1600.857422	24390.859375
1599.242188	24647.552734
1597.628906	24721.408203
1596.013672	24446.875000
1594.398438	24345.822266
1592.783203	24640.998047
1591.167969	24815.359375
1589.550781	24816.388672
1587.935547	24563.765625
1586.318359	24819.986328
1584.701172	24695.783203
1583.083984	24706.105469
1581.466797	24889.500000
1579.847656	24769.990234
1578.230469	24699.958984
1576.611328	24853.894531
1574.992188	25058.716797
1573.373047	24956.246094
1571.751953	24900.119141
1570.132813	25077.025391
1568.511719	24889.757813
1566.890625	24827.505859
1565.269531	25035.154297
1563.648438	25008.355469
1562.027344	25075.599609
1560.404297	25155.144531
1558.783203	24980.412109
1557.160156	25298.722656
1555.537109	25162.537109
1553.912109	25283.566406
1552.289063	25404.546875
1550.664063	25419.263672
1549.041016	25544.779297
1547.416016	25387.132813
1545.791016	25412.609375
1544.164063	25295.042969
1542.539063	25289.771484
1540.912109	25409.025391
1539.287109	25417.562500
1537.660156	25449.144531
1536.033203	25356.265625
1534.404297	25057.593750
1532.777344	25471.625000
1531.148438	25487.808594
1529.519531	25250.695313
1527.890625	25271.519531
1526.261719	25527.105469
1524.632813	25379.107422
1523.001953	25404.490234
1521.373047	25592.410156
1519.742188	25815.511719
1518.111328	25646.111328
1516.478516	25648.421875
1514.847656	25632.343750
1513.214844	25778.652344
1511.583984	25571.103516
1509.951172	25550.455078
1508.318359	25811.501953
1506.683594	25463.257813
1505.050781	25684.423828
1503.416016	25575.023438
1501.783203	25750.181641
1500.148438	25778.449219
1498.511719	25510.074219
1496.876953	25807.427734
1495.242188	25870.814453
1493.605469	25921.947266
1491.968750	25832.505859
1490.332031	25785.867188
1488.695313	26029.396484
1487.058594	25854.484375
1485.419922	25870.451172
1483.781250	25890.988281
1482.142578	25835.224609
1480.503906	26186.792969
1478.865234	26082.179688
1477.226563	25796.152344
1475.585938	26080.421875
1473.945313	26035.337891
1472.304688	26298.101563
1470.664063	25794.386719
1469.023438	26067.750000
1467.380859	26141.490234
1465.740234	26178.656250
1464.097656	26424.361328
1462.455078	26129.652344
1460.812500	26107.447266
1459.167969	26473.195313
1457.525391	26338.365234
1455.880859	26378.474609
1454.236328	26485.462891
1452.591797	26536.162109
1450.947266	26396.867188
1449.302734	26423.248047
1447.656250	26590.896484
1446.009766	26387.882813
1444.363281	26549.390625
1442.716797	26467.921875
1441.070313	26436.574219
1439.421875	26531.193359
1437.775391	26502.876953
1436.126953	26338.048828
1434.478516	26626.748047
1432.830078	26592.359375
1431.179688	26661.068359
1429.531250	26770.669922
1427.880859	26540.791016
1426.230469	26683.697266
1424.580078	26600.855469
1422.929688	26890.580078
1421.279297	26653.292969
1419.626953	26635.593750
1417.974609	26832.804688
1416.322266	26951.251953
1414.669922	26856.345703
1413.017578	26939.947266
1411.363281	26855.664063
1409.710938	26797.115234
1408.056641	27102.865234
1406.402344	26888.632813
1404.748047	26712.261719
1403.091797	26748.951172
1401.437500	27037.833984
1399.781250	26786.041016
1398.125000	27073.283203
1396.468750	26839.697266
1394.812500	26769.175781
1393.154297	26977.785156
1391.498047	26863.519531
1389.839844	26768.904297
1388.181641	26790.421875
1386.523438	26706.410156
1384.865234	26461.175781
1383.205078	26668.068359
1381.544922	26716.699219
1379.884766	26727.652344
1378.224609	26700.955078
1376.564453	26737.498047
1374.904297	26882.396484
1373.242188	26623.929688
1371.580078	26631.875000
1369.919922	26567.611328
1368.255859	26774.078125
1366.593750	27108.259766
1364.931641	26496.740234
1363.267578	26718.115234
1361.603516	26557.724609
1359.939453	26597.208984
1358.275391	26702.763672
1356.611328	26976.460938
1354.945313	26646.488281
1353.279297	26778.980469
1351.613281	26723.820313
1349.947266	26658.179688
1348.281250	26619.568359
1346.615234	26603.466797
1344.947266	26671.341797
1343.279297	26727.193359
1341.611328	26481.751953
1339.943359	26639.517578
1338.275391	26550.007813
1336.605469	26879.947266
1334.935547	26649.648438
1333.267578	26712.912109
1331.597656	26885.423828
1329.925781	26789.960938
1328.255859	26627.203125
1326.583984	26826.548828
1324.912109	26693.761719
1323.240234	26801.787109
1321.568359	26830.525391
1319.896484	26933.988281
1318.224609	26808.755859
1316.550781	26889.765625
1314.876953	26760.111328
1313.203125	26912.779297
1311.529297	26916.064453
1309.853516	26980.554688
1308.179688	27174.867188
1306.503906	26915.457031
1304.828125	26975.423828
1303.152344	27074.146484
1301.474609	26843.251953
1299.798828	26889.773438
1298.121094	26738.015625
1296.443359	26982.751953
1294.765625	27096.261719
1293.087891	27075.646484
1291.410156	26867.373047
1289.730469	27026.992188
1288.050781	26908.140625
1286.371094	26816.128906
1284.691406	27331.320313
1283.011719	26720.000000
1281.332031	26882.449219
1279.650391	27162.314453
1277.968750	27279.990234
1276.287109	27118.138672
1274.605469	27252.119141
1272.921875	27069.535156
1271.240234	26956.851563
1269.556641	27017.994141
1267.873047	26988.527344
1266.189453	26993.216797
1264.505859	26919.230469
1262.820313	26883.859375
1261.134766	27106.675781
1259.451172	26912.548828
1257.765625	27006.228516
1256.078125	27105.798828
1254.392578	26910.308594
1252.705078	26769.740234
1251.019531	26676.648438
1249.332031	26770.271484
1247.642578	26850.521484
1245.955078	26948.507813
1244.267578	26870.255859
1242.578125	26926.744141
1240.888672	26811.527344
1239.199219	26660.845703
1237.509766	26783.910156
1235.818359	26553.425781
1234.128906	26726.732422
1232.437500	26805.345703
1230.746094	26928.267578
1229.054688	26932.912109
1227.363281	26597.728516
1225.669922	26818.105469
1223.976563	26675.078125
1222.283203	26611.843750
1220.589844	26535.347656
1218.896484	26565.150391
1217.203125	26552.144531
1215.507813	26620.285156
1213.812500	26807.869141
1212.117188	26426.146484
1210.421875	26476.572266
1208.726563	26519.605469
1207.029297	26531.669922
1205.332031	26439.115234
1203.636719	26433.509766
1201.937500	26497.128906
1200.240234	26431.138672
1198.542969	26583.056641
1196.843750	26465.558594
1195.144531	26508.507813
1193.445313	26636.769531
1191.746094	26422.248047
1190.046875	26390.171875
1188.345703	26474.261719
1186.644531	26373.097656
1184.943359	26654.087891
1183.242188	26417.742188
1181.541016	26249.072266
1179.837891	26253.781250
1178.136719	26396.521484
1176.433594	26477.537109
1174.730469	26383.847656
1173.027344	26234.433594
1171.322266	26205.388672
1169.619141	26189.556641
1167.914063	26271.988281
1166.208984	26181.367188
1164.503906	26143.554688
1162.796875	26181.970703
1161.091797	26210.111328
1159.384766	26090.273438
1157.677734	26259.029297
1155.970703	26134.833984
1154.263672	26225.910156
1152.554688	26153.003906
1150.847656	26254.277344
1149.138672	26263.328125
1147.429688	26332.349609
1145.720703	26078.125000
1144.009766	25924.896484
1142.300781	25910.613281
1140.589844	26109.726563
1138.878906	25865.986328
1137.167969	25936.455078
1135.455078	25951.388672
1133.744141	25864.087891
1132.031250	26255.714844
1130.318359	25723.169922
1128.605469	25776.074219
1126.892578	25862.511719
1125.179688	25681.955078
1123.464844	25750.871094
1121.750000	25584.992188
1120.035156	25890.070313
1118.320313	25893.302734
1116.605469	25581.771484
1114.888672	25573.410156
1113.171875	25626.230469
1111.455078	25494.074219
1109.738281	25686.660156
1108.021484	25331.826172
1106.302734	25454.503906
1104.585938	25670.250000
1102.867188	25570.222656
1101.148438	25202.617188
1099.429688	25131.812500
1097.708984	25145.355469
1095.990234	25203.953125
1094.269531	25391.857422
1092.548828	25094.412109
1090.828125	25254.658203
1089.105469	24929.773438
1087.384766	25201.785156
1085.662109	25235.605469
1083.939453	25175.072266
1082.216797	25049.267578
1080.492188	24914.810547
1078.769531	24815.220703
1077.044922	24954.937500
1075.320313	24932.216797
1073.595703	24683.382813
1071.871094	24862.162109
1070.146484	24701.828125
1068.419922	24544.457031
1066.693359	24896.937500
1064.966797	24655.607422
1063.240234	24534.535156
1061.513672	24704.423828
1059.785156	24544.318359
1058.056641	24507.250000
1056.328125	24454.285156
1054.599609	24489.554688
1052.871094	24582.636719
1051.140625	24380.802734
1049.412109	24285.994141
1047.681641	24301.035156
1045.951172	24181.722656
1044.218750	24193.888672
1042.488281	24289.792969
1040.755859	24277.384766
1039.023438	24223.123047
1037.291016	24203.515625
1035.558594	24240.181641
1033.826172	24040.277344
1032.091797	24006.294922
1030.357422	23852.660156
1028.623047	23984.500000
1026.888672	23845.343750
1025.154297	23876.263672
1023.417969	23858.193359
1021.681641	23930.861328
1019.945313	23829.267578
1018.208984	23809.773438
1016.472656	23690.974609
1014.734375	23658.564453
1012.998047	23653.501953
1011.259766	23562.136719
1009.521484	23601.673828
1007.783203	23726.021484
1006.042969	23807.189453
1004.302734	23554.904297
1002.564453	23340.082031
1000.824219	23237.398438
999.082031	23340.140625
997.341797	23129.804688
995.599609	23101.880859
993.859375	23185.921875
992.117188	22926.960938
990.373047	22983.740234
988.630859	23193.974609
986.886719	23090.052734
985.144531	22921.656250
983.400391	22862.271484
981.656250	22954.826172
979.910156	22674.800781
978.166016	22707.185547
976.419922	22775.361328
974.673828	22832.050781
972.927734	22682.562500
971.181641	22535.998047
969.433594	22335.117188
967.687500	22433.337891
965.939453	22457.134766
964.191406	22402.263672
962.441406	22511.839844
960.693359	22384.076172
958.943359	22309.244141
957.195313	22131.564453
955.445313	22109.673828
953.693359	22172.054688
951.943359	22130.169922
950.191406	21858.453125
948.441406	22045.021484
946.689453	22024.591797
944.935547	22018.435547
943.183594	21829.701172
941.431641	21892.041016
939.677734	21787.533203
937.923828	21700.175781
936.169922	21833.755859
934.414063	21655.230469
932.660156	21858.566406
930.904297	21710.019531
929.148438	21484.640625
927.392578	21458.667969
925.636719	21392.853516
923.878906	21536.251953
922.123047	21572.880859
920.365234	21588.158203
918.607422	21161.146484
916.849609	21412.523438
915.089844	21294.197266
913.330078	21141.814453
911.572266	21182.734375
909.812500	21098.626953
908.050781	20953.478516
906.291016	21005.771484
904.529297	20947.304688
902.767578	20813.634766
901.005859	20851.728516
899.244141	20886.964844
897.482422	20849.845703
895.718750	20872.302734
893.957031	20833.781250
892.193359	20842.054688
890.427734	20731.275391
888.664063	20665.884766
886.898438	20590.603516
885.134766	20365.222656
883.369141	20614.302734
881.603516	20204.970703
879.835938	20281.296875
878.070313	20284.003906
876.302734	20213.138672
874.535156	20167.761719
872.767578	20191.701172
871.000000	19907.402344
869.230469	19999.234375
867.460938	20091.025391
865.693359	19908.662109
863.921875	19859.164063
862.152344	19747.544922
860.382813	19528.654297
858.611328	19664.207031
856.839844	19434.134766
855.068359	19542.835938
853.296875	19549.906250
851.523438	19315.773438
849.751953	19410.322266
847.978516	19280.652344
846.205078	19186.275391
844.431641	19217.369141
842.656250	19069.503906
840.880859	19049.892578
839.107422	19347.177734
837.332031	18729.072266
835.554688	18916.488281
833.779297	18718.171875
832.001953	18926.613281
830.226563	18850.777344
828.447266	18727.146484
826.669922	18749.822266
824.892578	18695.156250
823.113281	18605.373047
821.333984	18584.490234
819.554688	18454.019531
817.775391	18476.722656
815.996094	18444.640625
814.214844	18404.146484
812.435547	18341.207031
810.654297	18177.240234
808.871094	18512.894531
807.089844	18476.625000
805.306641	18067.269531
803.525391	18140.492188
801.742188	18240.318359
799.958984	17985.466797
798.173828	17887.681641
796.390625	18051.945313
794.605469	17989.207031
792.820313	17902.685547
791.035156	17684.582031
789.248047	17857.142578
787.462891	17765.103516
785.675781	17559.759766
783.888672	17611.919922
782.101563	17718.603516
780.314453	17644.849609
778.525391	17531.978516
776.736328	17487.648438
774.947266	17538.363281
773.158203	17345.947266
771.369141	17486.068359
769.578125	17162.466797
767.789063	17411.472656
765.998047	17357.447266
764.207031	17218.306641
762.414063	17248.066406
760.623047	16924.859375
758.830078	16983.957031
757.037109	16927.287109
755.244141	16855.304688
753.451172	16915.767578
751.656250	16776.927734
749.863281	16693.875000
748.068359	16698.613281
746.271484	16766.017578
744.476563	16618.970703
742.681641	16615.367188
740.884766	16396.042969
739.087891	16556.675781
737.291016	16415.363281
735.494141	16457.699219
733.695313	16213.567383
731.896484	16324.047852
730.097656	16252.399414
728.298828	16055.713867
726.500000	16110.581055
724.701172	16026.521484
722.900391	15970.270508
721.099609	15832.126953
719.298828	15946.679688
717.496094	15841.906250
715.695313	15801.003906
713.892578	15656.076172
712.089844	15827.426758
710.287109	15725.540039
708.484375	15691.625000
706.679688	15544.071289
704.876953	15410.437500
703.072266	15487.442383
701.267578	15521.474609
699.460938	15288.224609
697.656250	15295.977539
695.849609	15266.352539
694.042969	15377.897461
692.236328	15079.847656
690.429688	15165.100586
688.621094	15276.591797
686.812500	15065.865234
685.005859	14971.350586
683.195313	14995.736328
681.386719	14800.405273
679.578125	14822.051758
677.767578	14890.649414
675.957031	14758.986328
674.146484	14777.864258
672.333984	14802.254883
670.523438	14604.454102
668.710938	14576.441406
666.898438	14686.377930
665.085938	14443.219727
663.273438	14346.317383
661.458984	14294.946289
659.644531	14269.782227
657.830078	14361.749023
656.015625	14376.530273
654.201172	14315.552734
652.384766	14278.009766
650.570313	14188.167969
648.753906	14073.588867
646.935547	14062.265625
645.119141	14016.552734
643.300781	14041.007813
641.484375	13960.936523
639.666016	13836.903320
637.847656	13816.017578
636.027344	13742.916992
634.208984	13724.806641
632.388672	13703.956055
630.568359	13356.246094
628.748047	13453.569336
626.925781	13563.204102
625.105469	13465.543945
623.283203	13536.705078
621.460938	13430.859375
619.636719	13360.720703
617.814453	13401.687500
615.990234	13226.016602
614.167969	13197.086914
612.343750	13176.391602
610.517578	13037.875977
608.693359	13173.379883
606.867188	12977.404297
605.041016	13101.906250
603.214844	12937.514648
601.388672	12931.952148
599.562500	12838.820313
597.734375	12792.239258
595.906250	12830.476563
594.078125	12926.126953
592.250000	12692.261719
590.419922	12731.859375
588.591797	12530.932617
586.761719	12619.731445
584.931641	12612.875000
583.099609	12619.677734
581.269531	12420.313477
579.437500	12530.894531
577.605469	12309.799805
575.773438	12337.125977
573.941406	12273.041992
572.107422	12326.275391
570.273438	12264.947266
568.439453	12117.762695
566.605469	12280.026367
564.771484	12187.406250
562.935547	12073.028320
561.101563	12142.575195
559.265625	11990.125977
557.427734	11776.478516
555.591797	12024.352539
553.753906	11911.491211
551.917969	11827.250977
550.080078	11782.494141
548.240234	11785.354492
546.402344	11705.273438
544.562500	11644.257813
542.724609	11477.261719
540.884766	11550.838867
539.042969	11553.742188
537.203125	11468.363281
535.361328	11419.683594
533.519531	11346.587891
531.677734	11312.883789
529.835938	11211.345703
527.994141	11225.168945
526.150391	11314.942383
524.306641	11133.458984
522.462891	10930.361328
520.619141	11066.225586
518.773438	11017.722656
516.927734	10942.142578
515.082031	10831.375000
513.236328	10864.210938
511.390625	10756.215820
509.542969	10668.573242
507.697266	10640.517578
505.849609	10667.952148
504.000000	10688.609375
502.152344	10464.450195
500.302734	10397.247070
498.455078	10363.871094
496.605469	10530.549805
494.753906	10344.457031
492.904297	10275.985352
491.052734	10248.065430
489.203125	10197.199219
487.351563	10220.612305
485.498047	10096.881836
483.646484	10112.208008
481.792969	10054.666992
479.939453	10091.578125
478.085938	9954.495117
476.232422	10038.603516
474.376953	9939.336914
472.523438	9857.633789
470.667969	9705.896484
468.812500	9814.232422
466.955078	9773.015625
465.099609	9844.929688
463.242188	9721.598633
461.384766	9661.583008
459.527344	9628.507813
457.667969	9622.354492
455.810547	9665.971680
453.951172	9381.434570
452.091797	9583.738281
450.232422	9437.797852
448.371094	9383.307617
446.511719	9336.903320
444.650391	9285.145508
442.789063	9275.043945
440.927734	9102.473633
439.064453	9174.305664
437.201172	9187.049805
435.337891	9130.010742
433.474609	9141.416016
431.611328	9075.022461
429.748047	8920.153320
427.882813	8920.870117
426.017578	8913.543945
424.152344	8864.677734
422.285156	8797.075195
420.419922	8742.896484
418.552734	8787.841797
416.685547	8701.554688
414.818359	8767.906250
412.949219	8661.584961
411.082031	8572.705078
409.212891	8640.376953
407.343750	8587.649414
405.472656	8521.574219
403.603516	8517.021484
401.732422	8348.075195
399.861328	8386.321289
397.990234	8412.527344
396.119141	8379.951172
394.246094	8326.023438
392.375000	8240.077148
390.501953	8200.885742
388.628906	8220.427734
386.753906	8063.847656
384.880859	7978.032227
383.005859	7922.927734
381.130859	8027.843262
379.253906	7904.767090
377.378906	7932.341797
375.501953	7886.620605
373.626953	7927.507324
371.748047	7800.563965
369.871094	7888.054688
367.994141	7674.644043
366.115234	7758.129883
364.236328	7753.754395
362.357422	7539.183105
360.478516	7665.204102
358.597656	7602.340820
356.716797	7500.949219
354.835938	7367.701660
352.955078	7513.580566
351.074219	7428.217773
349.191406	7346.877441
347.308594	7493.990723
345.425781	7432.586426
343.542969	7238.465332
341.658203	7186.433594
339.775391	7328.143066
337.890625	7240.296387
336.005859	7152.488281
334.119141	7133.668457
332.234375	7146.672852
330.347656	6967.491211
328.460938	7025.578125
326.574219	6918.040039
324.685547	6970.812988
322.798828	6892.466797
320.910156	6933.305664
319.021484	6874.855469
317.132813	6748.940918
315.242188	6930.024414
313.351563	6784.311523
311.460938	6670.401367
309.570313	6590.916992
307.679688	6549.801758
305.787109	6673.898926
303.896484	6595.786621
302.003906	6480.721191
300.111328	6546.640137
298.216797	6434.276367
296.322266	6446.051270
294.429688	6489.495605
292.535156	6447.152344
290.638672	6328.312012
288.744141	6295.254883
286.847656	6283.309570
284.951172	6264.777832
283.054688	6288.431641
281.158203	6132.858887
279.259766	6213.181641
277.361328	6069.547852
275.462891	6170.918457
273.564453	6093.187012
271.666016	6127.375000
269.765625	5983.886230
267.865234	5953.612793
265.964844	5954.921875
264.064453	5964.121094
262.162109	5919.407227
260.261719	5793.210938
258.359375	5864.208984
256.457031	5925.977051
254.552734	5903.642090
252.650391	5811.707520
250.746094	5843.244141
248.841797	5889.206543
246.937500	5731.709961
245.031250	5794.735352
243.126953	5664.879395
241.220703	5727.890137
239.314453	5505.000977
237.406250	5658.480957
235.500000	5619.211426
233.591797	5552.438965
231.683594	5696.633789
229.775391	5464.827637
227.865234	5581.475586
225.957031	5535.718262
224.046875	5497.834961
222.136719	5405.001953
220.226563	5444.360352
218.314453	5390.824219
216.402344	5394.855957
214.490234	5359.659180
212.578125	5422.522461
210.666016	5396.482910
208.751953	5384.828613
206.839844	5367.953125
204.925781	5358.921875
203.009766	5321.166016
201.095703	5356.535645
