#Wave		#Intensity
4001.644531	3788.956787
4000.500000	3837.001221
3999.354492	4041.540527
3998.209961	3975.308105
3997.064453	3887.273682
3995.918945	3746.897461
3994.772461	3907.666016
3993.626953	3839.324707
3992.480469	4076.353027
3991.333984	3931.683105
3990.187500	3835.031494
3989.040039	3838.687500
3987.893555	3792.214844
3986.746094	3887.396484
3985.598633	3995.614746
3984.451172	3857.652588
3983.302734	4005.037354
3982.154297	4002.124512
3981.006836	3881.653076
3979.857422	3931.002930
3978.708984	3845.408203
3977.560547	3912.153076
3976.411133	3946.241699
3975.261719	3919.416504
3974.112305	3859.981445
3972.961914	3876.666504
3971.811523	3815.087158
3970.662109	3951.312988
3969.511719	3994.048096
3968.360352	3960.724609
3967.209961	3883.968506
3966.058594	3891.942383
3964.907227	3889.055908
3963.755859	3912.222900
3962.604492	4037.401367
3961.452148	3902.104248
3960.299805	3825.442383
3959.147461	3822.569824
3957.995117	3865.248291
3956.841797	3816.827393
3955.689453	3852.986084
3954.536133	3891.299316
3953.382813	3972.947266
3952.228516	3900.703857
3951.075195	3895.653320
3949.920898	3953.426025
3948.766602	3976.523682
3947.612305	3778.735107
3946.458008	3873.302979
3945.302734	3976.494629
3944.147461	3880.535400
3942.992188	3866.838379
3941.836914	3965.646973
3940.680664	3900.025146
3939.525391	3849.565918
3938.369141	3846.695313
3937.211914	3889.225342
3936.055664	3875.540771
3934.898438	3911.565918
3933.742188	3809.293701
3932.584961	3879.882324
3931.426758	3915.886475
3930.269531	3794.233887
3929.111328	3895.012939
3927.953125	3836.010986
3926.794922	3906.528809
3925.636719	3886.388428
3924.477539	3857.625244
3923.319336	3831.029541
3922.160156	3804.443604
3921.000000	3885.683105
3919.840820	3800.886475
3918.680664	3892.874023
3917.520508	3838.278809
3916.360352	3749.228027
3915.200195	3869.179932
3914.040039	3762.924316
3912.878906	3826.837158
3911.717773	3817.519531
3910.556641	3905.078613
3909.394531	3747.237549
3908.233398	3920.855225
3907.071289	3788.887695
3905.909180	3872.084473
3904.746094	3966.004395
3903.583984	3834.101074
3902.420898	3850.593994
3901.257813	3856.333008
3900.094727	3879.262939
3898.931641	3951.606201
3897.767578	3890.722900
3896.603516	3842.749756
3895.439453	3786.203857
3894.275391	3890.718018
3893.111328	3849.211426
3891.946289	3758.352539
3890.781250	3815.601563
3889.616211	3780.567871
3888.451172	3893.566895
3887.285156	3789.897217
3886.119141	3780.620361
3884.953125	3820.659180
3883.787109	3822.097900
3882.620117	3851.397949
3881.454102	3790.687744
3880.287109	3764.278809
3879.120117	3804.282959
3877.952148	3846.413818
3876.785156	3869.257813
3875.617188	3780.768066
3874.449219	3833.581787
3873.281250	3772.951904
3872.112305	3842.864746
3870.944336	3782.255371
3869.775391	3894.917969
3868.606445	3836.459473
3867.436523	3728.845947
3866.267578	3783.737549
3865.097656	3778.764160
3863.927734	3893.459473
3862.757813	3792.323975
3861.587891	3716.858887
3860.416992	3822.958740
3859.246094	3741.109619
3858.075195	3763.902832
3856.904297	3814.436523
3855.732422	3749.707031
3854.560547	3815.160645
3853.388672	3844.322510
3852.216797	3811.617432
3851.044922	3772.526611
3849.872070	3761.168457
3848.699219	3798.845215
3847.526367	3727.806885
3846.353516	3684.497803
3845.179688	3786.085693
3844.005859	3819.468994
3842.832031	3829.411621
3841.658203	3869.162598
3840.484375	3817.350342
3839.309570	3857.088379
3838.134766	3835.092529
3836.959961	3819.488281
3835.785156	3818.781738
3834.609375	3830.837646
3833.434570	3725.922119
3832.258789	3810.283691
3831.082031	3903.117432
3829.906250	3793.995361
3828.729492	3816.669189
3827.552734	3845.708740
3826.375977	3713.290039
3825.199219	3808.178711
3824.021484	3718.286133
3822.844727	3813.138428
3821.666992	3769.977783
3820.489258	3675.896973
3819.310547	3838.606445
3818.131836	3708.480713
3816.954102	3748.096191
3815.774414	3694.382813
3814.595703	3797.597168
3813.416992	3813.853760
3812.237305	3804.668945
3811.057617	3859.063477
3809.877930	3616.804443
3808.697266	3630.963379
3807.516602	3698.067383
3806.336914	3940.909668
3805.155273	3796.207520
3803.974609	3723.531250
3802.792969	3811.732178
3801.612305	3766.588623
3800.430664	3852.633057
3799.248047	3680.581543
3798.066406	3705.277832
3796.883789	3725.736084
3795.701172	3710.246582
3794.518555	3692.649170
3793.335938	3704.644531
3792.152344	3727.199707
3790.968750	3789.884521
3789.785156	3645.556152
3788.601563	3756.802979
3787.417969	3802.556152
3786.233398	3801.850830
3785.048828	3773.708252
3783.864258	3859.525635
3782.678711	3749.100586
3781.494141	3803.249512
3780.308594	3566.334717
3779.123047	3827.141846
3777.937500	3758.968262
3776.750977	3844.692139
3775.564453	3692.242676
3774.377930	3771.625488
3773.191406	3682.445557
3772.004883	3742.843994
3770.817383	3792.690430
3769.629883	3756.193115
3768.442383	3723.919189
3767.254883	3742.170166
3766.066406	3695.180420
3764.878906	3795.482666
3763.690430	3695.911865
3762.500977	3722.566406
3761.312500	3745.005371
3760.123047	3700.160156
3758.933594	3665.841309
3757.744141	3730.309570
3756.554688	3803.158203
3755.364258	3737.326904
3754.173828	3705.126465
3752.983398	3693.937988
3751.792969	3663.856689
3750.602539	3679.969727
3749.411133	3721.262939
3748.219727	3615.648438
3747.028320	3866.744873
3745.835938	3786.314453
3744.644531	3802.388916
3743.452148	3680.061768
3742.259766	3658.412598
3741.067383	3705.943115
3739.874023	3669.626709
3738.680664	3779.997559
3737.487305	3791.864502
3736.293945	3709.471436
3735.100586	3777.889160
3733.906250	3699.716553
3732.711914	3784.857666
3731.517578	3805.083740
3730.323242	3752.060547
3729.127930	3749.270264
3727.932617	3750.664551
3726.737305	3764.606934
3725.541992	3757.633301
3724.345703	3694.213867
3723.150391	3745.783447
3721.954102	3832.862061
3720.757813	3704.688965
3719.560547	3802.187744
3718.364258	3761.794189
3717.166992	3752.740723
3715.969727	3735.338379
3714.771484	3809.795166
3713.574219	3829.957520
3712.375977	3862.633057
3711.177734	3757.593994
3709.979492	3752.722412
3708.780273	3672.770020
3707.582031	3751.324707
3706.382813	3675.571777
3705.183594	3812.460938
3703.983398	3778.405762
3702.784180	3740.195801
3701.583984	3801.997559
3700.383789	3824.201172
3699.182617	3775.590820
3697.982422	3883.157715
3696.781250	3803.328125
3695.580078	3736.016357
3694.378906	3966.306396
3693.177734	3803.282715
3691.975586	3898.262207
3690.773438	3733.231689
3689.571289	3821.950195
3688.369141	3864.897217
3687.166016	3853.783447
3685.962891	3932.038086
3684.759766	3808.711426
3683.556641	3820.466064
3682.352539	3786.520264
3681.149414	3846.038086
3679.945313	3936.678467
3678.740234	3946.323730
3677.536133	3891.623779
3676.331055	3959.377441
3675.126953	3778.135010
3673.920898	3883.222900
3672.715820	4021.455322
3671.510742	3898.362793
3670.304688	3885.196045
3669.098633	3967.383789
3667.891602	3916.905029
3666.685547	3996.983887
3665.478516	3940.302979
3664.271484	3900.213135
3663.064453	3965.753418
3661.857422	3967.083740
3660.649414	3974.623535
3659.441406	4046.321777
3658.233398	4066.259766
3657.025391	4088.259033
3655.816406	4199.198242
3654.607422	3991.595703
3653.398438	4141.799316
3652.189453	4058.329346
3650.980469	4082.375488
3649.770508	4158.078613
3648.560547	4122.175293
3647.350586	4133.800293
3646.139648	4126.831543
3644.929688	4167.362305
3643.718750	4102.577637
3642.507813	4110.068359
3641.295898	4032.934326
3640.084961	4116.786133
3638.873047	4223.301270
3637.661133	4170.942383
3636.449219	4056.730957
3635.236328	4076.592773
3634.023438	4189.219727
3632.810547	4157.518066
3631.597656	4214.444336
3630.384766	4174.507324
3629.170898	4060.422363
3627.957031	4156.468750
3626.743164	4221.589355
3625.529297	4156.972656
3624.314453	4110.907227
3623.099609	4248.034668
3621.884766	4276.048828
3620.669922	4275.249023
3619.454102	4190.111816
3618.239258	4191.384277
3617.023438	4167.981445
3615.806641	4177.480957
3614.590820	4250.695313
3613.374023	4200.578125
3612.157227	4325.127930
3610.940430	4188.733887
3609.723633	4395.396484
3608.505859	4174.844727
3607.288086	4231.551270
3606.070313	4345.714355
3604.852539	4250.490723
3603.633789	4196.342773
3602.415039	4250.950684
3601.196289	4237.847168
3599.977539	4438.036133
3598.758789	4279.319336
3597.539063	4266.217285
3596.319336	4283.865234
3595.099609	4315.851563
3593.878906	4284.309082
3592.659180	4461.729492
3591.438477	4350.292969
3590.217773	4306.474609
3588.996094	4365.041992
3587.775391	4382.646973
3586.553711	4371.592285
3585.332031	4426.021484
3584.109375	4447.695801
3582.887695	4293.451660
3581.665039	4419.442383
3580.442383	4293.886719
3579.219727	4407.563477
3577.996094	4353.594727
3576.773438	4350.734863
3575.549805	4280.450684
3574.325195	4543.167969
3573.101563	4483.085938
3571.876953	4443.446777
3570.652344	4377.280762
3569.427734	4596.915527
3568.203125	4383.801758
3566.977539	4470.720703
3565.752930	4510.683594
3564.526367	4446.605957
3563.300781	4453.928711
3562.075195	4565.235840
3560.848633	4478.758789
3559.622070	4490.146973
3558.395508	4430.207520
3557.167969	4555.696777
3555.940430	4548.730469
3554.712891	4608.976563
3553.485352	4595.893066
3552.257813	4495.270996
3551.029297	4575.847656
3549.800781	4528.180176
3548.572266	4527.329590
3547.343750	4579.373047
3546.114258	4692.416504
3544.884766	4691.535156
3543.655273	4527.995605
3542.425781	4482.422363
3541.195313	4514.099609
3539.965820	4738.812500
3538.734375	4634.305176
3537.503906	4604.996094
3536.273438	4697.553711
3535.041992	4704.792969
3533.810547	4578.038086
3532.579102	4613.713867
3531.346680	4651.405273
3530.115234	4721.546875
3528.882813	4625.312500
3527.650391	4778.591309
3526.416992	4733.079102
3525.184570	4831.536621
3523.951172	4680.621094
3522.717773	4898.628906
3521.483398	4664.676270
3520.250000	4787.383789
3519.015625	4849.276367
3517.781250	4743.053223
3516.545898	4869.725586
3515.311523	4787.831055
3514.076172	4833.483887
3512.840820	4688.892578
3511.605469	4805.362305
3510.369141	4881.329102
3509.133789	4799.508301
3507.897461	4701.541016
3506.660156	4876.551758
3505.423828	4819.034180
3504.186523	4773.664551
3502.949219	4958.665527
3501.711914	4895.103516
3500.474609	4926.500000
3499.236328	4939.708984
3497.998047	4952.912598
3496.759766	4844.986328
3495.521484	4916.734863
3494.282227	4921.862793
3493.042969	4947.164551
3491.803711	4915.974609
3490.564453	4906.980957
3489.324219	4974.616211
3488.084961	5034.161621
3486.844727	5027.166016
3485.603516	4995.988770
3484.363281	5053.480469
3483.122070	5008.208008
3481.880859	4999.207031
3480.639648	5004.306152
3479.397461	5039.604492
3478.156250	5064.824219
3476.914063	5094.059570
3475.671875	5151.455566
3474.428711	5074.031738
3473.186523	5095.201660
3471.943359	5096.251953
3470.700195	5163.657227
3469.456055	5164.693848
3468.212891	5157.689453
3466.968750	5140.639648
3465.724609	5131.633301
3464.479492	5192.939941
3463.235352	5202.002930
3461.990234	5134.753418
3460.745117	5099.653320
3459.499023	5088.654297
3458.253906	5224.168457
3457.007813	5056.634766
3455.761719	5180.066406
3454.515625	5110.889648
3453.268555	5240.280273
3452.021484	5159.087891
3450.775391	5083.939453
3449.527344	5173.174805
3448.280273	5102.059570
3447.032227	5201.274902
3445.784180	5084.107422
3444.536133	5225.347168
3443.287109	5310.465332
3442.039063	5099.246094
3440.790039	5034.229004
3439.541016	5131.342285
3438.291016	5296.449707
3437.041992	5357.465820
3435.791992	5134.435059
3434.541992	5195.458496
3433.291016	5150.489746
3432.041016	5227.479004
3430.790039	5294.445313
3429.539063	5227.501465
3428.287109	5276.460938
3427.036133	5151.617188
3425.784180	5158.631836
3424.532227	5253.501465
3423.280273	5200.602051
3422.027344	5211.595215
3420.774414	5228.570313
3419.521484	5253.520020
3418.268555	5276.465332
3417.014648	5115.907227
3415.761719	5089.015625
3414.507813	5147.865723
3413.252930	5144.898438
3411.999023	5074.170410
3410.744141	5129.003906
3409.489258	5329.250000
3408.234375	5152.957520
3406.978516	5313.293457
3405.723633	5117.158691
3404.467773	5267.486328
3403.210938	5260.518555
3401.955078	5160.023438
3400.698242	5236.641602
3399.441406	5343.068848
3398.184570	5228.692871
3396.927734	5168.048340
3395.669922	5198.879395
3394.412109	5102.484375
3393.154297	5296.278320
3391.896484	5275.405762
3390.637695	5117.465820
3389.378906	5154.234863
3388.120117	5075.810547
3386.861328	5219.788086
3385.601563	5063.962402
3384.341797	5164.223633
3383.082031	5189.041504
3381.822266	5090.844238
3380.561523	5075.994629
3379.300781	5096.848145
3378.040039	5222.783691
3376.779297	5229.723633
3375.517578	5016.649414
3374.256836	5138.564453
3372.995117	5115.795898
3371.732422	5198.025879
3370.470703	5068.303223
3369.208008	5164.372070
3367.945313	5094.099121
3366.682617	5073.338379
3365.418945	5030.815918
3364.155273	5031.840332
3362.891602	5064.517578
3361.627930	5176.300293
3360.363281	5050.730957
3359.099609	5164.450684
3357.834961	5052.768555
3356.569336	5045.880859
3355.304688	5001.449707
3354.039063	4990.622070
3352.773438	5058.811523
3351.507813	5123.024902
3350.241211	5052.942383
3348.975586	4992.757324
3347.708984	5021.417480
3346.442383	4973.101074
3345.174805	4989.915039
3343.907227	5056.039551
3342.639648	4974.213867
3341.372070	5034.400391
3340.104492	5145.824219
3338.835938	5109.365234
3337.567383	5070.949219
3336.298828	4957.670410
3335.029297	4923.237305
3333.760742	5064.121094
3332.491211	5092.699219
3331.221680	4947.997559
3329.951172	4972.648926
3328.681641	4985.481934
3327.411133	4980.598633
3326.139648	5040.644043
3324.869141	5061.323730
3323.597656	4920.725098
3322.327148	4923.722656
3321.054688	4796.964844
3319.783203	4843.227051
3318.510742	5032.933105
3317.238281	5063.413574
3315.965820	4966.191895
3314.693359	5088.985840
3313.419922	4962.339844
3312.146484	4920.165527
3310.873047	4826.969727
3309.599609	4898.667969
3308.325195	4872.227539
3307.050781	5065.524902
3305.776367	4970.409668
3304.501953	5065.559082
3303.226563	4890.089355
3301.951172	5010.701660
3300.675781	4984.268066
3299.400391	4875.540527
3298.124023	4876.571777
3296.847656	4912.862793
3295.571289	4913.886230
3294.294922	4952.113281
3293.017578	4912.015625
3291.740234	4958.057617
3290.462891	4929.715820
3289.185547	4897.470703
3287.907227	4896.538086
3286.628906	4921.032715
3285.350586	4982.671875
3284.072266	4969.992188
3282.792969	4857.623535
3281.513672	4973.962402
3280.234375	4840.140625
3278.955078	4985.743164
3277.674805	4656.641113
3276.394531	4960.408691
3275.114258	4918.460449
3273.833984	4878.479492
3272.552734	4873.646484
3271.272461	4896.134766
3269.990234	4821.061523
3268.708984	4874.761719
3267.426758	4811.422363
3266.145508	4943.101563
3264.862305	4881.722168
3263.580078	4954.861328
3262.296875	4854.526367
3261.014648	5021.167969
3259.731445	4831.246094
3258.447266	5077.684082
3257.164063	4772.930664
3255.879883	4783.702148
3254.595703	4860.653809
3253.310547	4830.533203
3252.026367	4880.204102
3250.741211	4885.109375
3249.456055	4802.482422
3248.169922	4768.505859
3246.884766	4769.540039
3245.598633	4729.750000
3244.312500	4938.759277
3243.025391	4844.540039
3241.739258	4886.358887
3240.452148	4949.529297
3239.165039	4886.436035
3237.876953	4920.455078
3236.589844	4775.851563
3235.301758	4734.178223
3234.013672	4764.324707
3232.724609	4905.056152
3231.436523	4772.205078
3230.147461	4844.996582
3228.857422	4681.180176
3227.568359	4930.392090
3226.278320	4737.544922
3224.989258	4767.648926
3223.698242	4737.672852
3222.408203	4779.388672
3221.117188	4759.105957
3219.826172	4793.055176
3218.535156	4724.371582
3217.244141	4678.943848
3215.952148	4883.210449
3214.660156	4719.728027
3213.368164	4792.345703
3212.076172	4642.483398
3210.783203	4755.701660
3209.490234	4665.845703
3208.197266	4701.685547
3206.903320	4729.779785
3205.610352	4686.359863
3204.316406	4733.767090
3203.022461	4767.633789
3201.727539	4629.591797
3200.432617	4649.947754
3199.137695	4691.532715
3197.842773	4449.347656
3196.547852	4506.394531
3195.251953	4580.785156
3193.956055	4637.784180
3192.660156	4671.615723
3191.363281	4516.445313
3190.067383	4527.149414
3188.770508	4676.645020
3187.472656	4575.527344
3186.175781	4520.696289
3184.877930	4490.931641
3183.580078	4493.924316
3182.282227	4427.583984
3180.983398	4455.619141
3179.684570	4450.915527
3178.385742	4640.615234
3177.086914	4512.715820
3175.788086	4471.446777
3174.488281	4210.895996
3173.188477	4563.975586
3171.887695	4461.186035
3170.587891	4387.274414
3169.287109	4376.822754
3167.986328	4326.016602
3166.685547	4452.003906
3165.383789	4368.543945
3164.082031	4452.218262
3162.780273	4399.515625
3161.478516	4333.393066
3160.175781	4334.481934
3158.873047	4366.277832
3157.570313	4380.791992
3156.267578	4278.270996
3154.963867	4239.087891
3153.660156	4282.383789
3152.356445	4225.958008
3151.052734	4248.151855
3149.748047	4126.586914
3148.443359	4281.016113
3147.138672	4222.716797
3145.833984	4202.750977
3144.528320	4008.509766
3143.222656	4294.965332
3141.916992	4110.352539
3140.610352	4090.423096
3139.304688	4064.759521
3137.998047	4044.845947
3136.691406	4072.764648
3135.383789	4135.099609
3134.076172	4059.727539
3132.768555	3999.679688
3131.460938	3974.062012
3130.153320	3906.408447
3128.844727	4129.221191
3127.536133	4038.638184
3126.227539	3993.931152
3124.917969	3966.428467
3123.608398	4028.674561
3122.298828	3924.816895
3120.989258	3916.428711
3119.678711	3911.859863
3118.369141	3888.214111
3117.057617	3826.427490
3115.747070	3985.890625
3114.436523	3920.294922
3113.125000	3793.719727
3111.813477	3894.010010
3110.500977	3879.922119
3109.189453	3957.293457
3107.876953	3771.754883
3106.564453	3864.353271
3105.250977	3829.334961
3103.937500	3817.175781
3102.625000	3799.310547
3101.310547	3922.281250
3099.997070	3784.530518
3098.682617	3749.560059
3097.368164	3710.799072
3096.053711	3763.331055
3094.739258	3737.890625
3093.423828	3744.775391
3092.108398	3763.060303
3090.792969	3722.432617
3089.476563	3702.718506
3088.160156	3696.307617
3086.843750	3613.936279
3085.527344	3721.467041
3084.210938	3627.732178
3082.893555	3655.503662
3081.576172	3696.547363
3080.257813	3644.610107
3078.940430	3676.155518
3077.622070	3609.069824
3076.303711	3621.647949
3074.984375	3592.513916
3073.666016	3629.730469
3072.346680	3663.142334
3071.027344	3639.700684
3069.707031	3659.837158
3068.387695	3596.631592
3067.067383	3605.406738
3065.747070	3528.982910
3064.425781	3653.232178
3063.104492	3508.698242
3061.783203	3723.725830
3060.461914	3539.506348
3059.140625	3474.516357
3057.818359	3396.313965
3056.496094	3458.051758
3055.173828	3472.507813
3053.850586	3445.379150
3052.527344	3448.494141
3051.204102	3423.269531
3049.880859	3477.386230
3048.556641	3478.604248
3047.233398	3432.618408
3045.909180	3462.160645
3044.583984	3486.029297
3043.259766	3464.599365
3041.934570	3428.084473
3040.608398	3482.125977
3039.283203	3387.157227
3037.957031	3446.842285
3036.630859	3382.079834
3035.304688	3488.864014
3033.978516	3452.385498
3032.651367	3363.165283
3031.324219	3439.750488
3029.997070	3422.135986
3028.668945	3541.989746
3027.341797	3400.105713
3026.013672	3356.156006
3024.684570	3357.390137
3023.356445	3416.952637
3022.027344	3346.687744
3020.698242	3443.845947
3019.368164	3471.388184
3018.039063	3344.749268
3016.708984	3368.540283
3015.378906	3471.256592
3014.047852	3352.206787
3012.717773	3421.070068
3011.386719	3409.139404
3010.055664	3299.559570
3008.723633	3389.046143
3007.392578	3307.670654
3006.060547	3307.031494
3004.727539	3340.169434
3003.395508	3302.000977
3002.062500	3308.865967
3000.729492	3390.744385
2999.396484	3375.088623
2998.062500	3395.057617
2996.728516	3392.526855
2995.394531	3255.071777
2994.060547	3338.754150
2992.725586	3295.024170
2991.390625	3329.971436
2990.055664	3205.741699
2988.720703	3304.345459
2987.384766	3318.680664
2986.048828	3321.781494
2984.712891	3373.528809
2983.376953	3369.134521
2982.040039	3289.928467
2980.703125	3339.781250
2979.366211	3322.308350
2978.028320	3269.326172
2976.690430	3332.235840
2975.352539	3284.877686
2974.014648	3319.737061
2972.675781	3264.927979
2971.336914	3217.609619
2969.998047	3358.885254
2968.659180	3376.902100
2967.319336	3256.801025
2965.979492	3407.316406
2964.639648	3378.671875
2963.299805	3204.546631
2961.958984	3300.901611
2960.618164	3272.293945
2959.277344	3264.203125
2957.935547	3317.621826
2956.593750	3343.067871
2955.251953	3293.979248
2953.910156	3319.419434
2952.567383	3261.041992
2951.225586	3198.963135
2949.881836	3246.746338
2948.539063	3186.555420
2947.195313	3254.792725
2945.852539	3296.955078
2944.507813	3318.638672
2943.164063	3264.059082
2941.819336	3103.509033
2940.474609	3372.482910
2939.129883	3234.279053
2937.784180	3272.678467
2936.439453	3169.850586
2935.093750	3195.243408
2933.747070	3235.485107
2932.401367	3132.723633
2931.054688	3137.685791
2929.708008	3287.433838
2928.360352	3284.940186
2927.013672	3185.959229
2925.666016	3350.451660
2924.318359	3156.900391
2922.969727	3239.738281
2921.621094	3211.298096
2920.272461	3327.460205
2918.923828	3106.262207
2917.575195	3168.661621
2916.225586	3136.551270
2914.875977	3217.443359
2913.525391	3268.672852
2912.175781	3186.568604
2910.825195	3200.759521
2909.474609	3270.470703
2908.123047	3201.366699
2906.772461	3211.845703
2905.420898	3153.878662
2904.069336	3227.242676
2902.716797	3228.464844
2901.364258	3272.206299
2900.011719	3293.750732
2898.659180	3180.383301
2897.305664	3301.708740
2895.953125	3238.259766
2894.599609	3126.815918
2893.245117	3209.302734
2891.891602	3217.909912
2890.537109	3195.134277
2889.181641	3211.122314
2887.827148	3171.750488
2886.471680	3141.617676
2885.116211	3220.315674
2883.760742	3195.716797
2882.405273	3102.911377
2881.048828	3170.510742
2879.692383	3136.720459
2878.334961	3113.999023
2876.978516	3141.026855
2875.621094	3171.727783
2874.263672	3200.575195
2872.905273	3083.958496
2871.547852	3179.080566
2870.189453	3229.994629
2868.830078	3142.881348
2867.471680	3182.743896
2866.112305	3147.176025
2864.752930	3183.343750
2863.393555	3145.950684
2862.033203	3213.355469
2860.672852	3078.559814
2859.312500	3142.275879
2857.952148	3229.850830
2856.590820	3205.342529
2855.229492	3204.718262
2853.868164	3202.257813
2852.505859	3119.022949
2851.144531	3193.668457
2849.782227	3059.084961
2848.418945	3148.390625
2847.056641	3164.286377
2845.693359	3231.528076
2844.330078	3120.879150
2842.965820	3100.104736
2841.602539	3132.493164
2840.238281	3113.556885
2838.874023	3202.728760
2837.508789	3132.493408
2836.143555	3113.567627
2834.778320	3147.752441
2833.413086	3123.338379
2832.046875	3075.137695
2830.681641	3100.159180
2829.314453	3163.594971
2827.948242	3109.926270
2826.581055	3237.350342
2825.214844	3114.198975
2823.846680	3206.834473
2822.479492	3184.273438
2821.111328	3147.100586
2819.743164	3064.261230
2818.375000	3080.104980
2817.005859	3075.850830
2815.636719	3128.208984
2814.267578	3120.295166
2812.898438	3059.446289
2811.528320	3011.396729
2810.158203	3016.282959
2808.788086	3101.439941
2807.416992	3077.122070
2806.046875	3134.878418
2804.675781	3099.623291
2803.303711	3159.175293
2801.932617	3122.106201
2800.560547	3114.207520
2799.188477	3049.833252
2797.815430	3173.101318
2796.443359	3139.700195
2795.070313	3068.074951
2793.696289	3142.114258
2792.323242	3054.135254
2790.949219	3095.392578
2789.575195	3207.589844
2788.201172	2983.221436
2786.826172	3082.665771
2785.451172	3051.151611
2784.076172	3121.455811
2782.701172	3035.417725
2781.325195	3034.824219
2779.949219	3046.948975
2778.573242	3022.738037
2777.196289	3031.227783
2775.819336	3056.056641
2774.442383	3015.518311
2773.065430	3129.281494
2771.687500	3054.263672
2770.309570	3055.480469
2768.931641	3120.188965
2767.553711	3135.901855
2766.174805	3039.180420
2764.795898	3096.601563
2763.416992	3065.180664
2762.037109	3002.962891
2760.657227	3123.774658
2759.277344	3079.685303
2757.897461	3091.760742
2756.516602	2980.692383
2755.135742	2981.919434
2753.754883	3048.311523
2752.373047	3087.530273
2750.991211	3052.545898
2749.609375	2948.829590
2748.227539	3054.967773
2746.844727	2958.524658
2745.461914	3042.922852
2744.079102	3002.557617
2742.696289	2938.712891
2741.312500	3048.362549
2739.928711	3080.284180
2738.544922	3009.236328
2737.160156	3035.735352
2735.775391	3120.001465
2734.390625	2998.441162
2733.005859	3079.071777
2731.620117	2997.265869
2730.234375	3016.523682
2728.848633	3061.026855
2727.461914	3006.323730
2726.076172	3045.401855
2724.689453	2983.511963
2723.301758	3091.069336
2721.915039	3011.174072
2720.527344	3030.401855
2719.138672	3004.588867
2717.750977	3099.450439
2716.362305	3041.222900
2714.973633	3076.631104
2713.584961	3023.830322
2712.195313	2960.252930
2710.806641	3069.422607
2709.416016	2978.878418
2708.026367	3043.039063
2706.635742	3040.643555
2705.245117	2957.348877
2703.854492	3093.372803
2702.462891	3105.344971
2701.072266	3011.305664
2699.680664	2904.728516
2698.288086	3101.719971
2696.896484	3041.853760
2695.503906	3041.256348
2694.110352	3019.119629
2692.717773	3095.694580
2691.324219	3087.909424
2689.930664	3028.104004
2688.537109	3108.218750
2687.142578	3102.228271
2685.748047	3081.897461
2684.353516	3032.894531
2682.958984	3046.635498
2681.563477	3081.872314
2680.167969	3068.726563
2678.771484	3086.034180
2677.375977	3046.031494
2675.979492	2991.721191
2674.583008	3000.083008
2673.185547	3094.345947
2671.789063	3020.375244
2670.391602	3059.138428
2668.993164	3037.073486
2667.595703	3147.348633
2666.197266	3014.423828
2664.798828	3053.157227
2663.400391	3047.194824
2662.000977	2987.628906
2660.601563	3029.917236
2659.202148	3077.547119
2657.801758	3144.802246
2656.401367	3128.114258
2655.000977	3106.077148
2653.600586	2998.380859
2652.199219	3056.675781
2650.797852	3116.731689
2649.396484	3003.745117
2647.995117	3097.670898
2646.592773	3171.946777
2645.190430	3062.580811
2643.787109	3020.985107
2642.384766	3072.066406
2640.981445	3010.887207
2639.578125	3017.418945
2638.173828	3105.869141
2636.769531	3083.890625
2635.365234	3085.063232
2633.960938	2979.445068
2632.555664	3071.391113
2631.150391	3026.307617
2629.745117	3080.853516
2628.339844	3021.557861
2626.933594	2971.176025
2625.527344	3071.921143
2624.121094	3030.435547
2622.713867	3035.169189
2621.306641	3009.697266
2619.899414	3140.552246
2618.492188	3120.397217
2617.083984	2993.712158
2615.675781	2975.368896
2614.266602	2999.631104
2612.858398	3082.444580
2611.449219	3010.867188
2610.040039	3052.846436
2608.629883	3013.226318
2607.220703	3072.919922
2605.810547	3157.409424
2604.399414	3029.167725
2602.989258	3012.620850
2601.578125	3066.951416
2600.166992	3112.403076
2598.754883	3025.005859
2597.343750	2997.847656
2595.930664	3087.545166
2594.518555	2984.273682
2593.106445	2988.993652
2591.693359	3055.637939
2590.280273	3083.338135
2588.866211	3130.482422
2587.452148	2949.499023
2586.038086	3111.566406
2584.624023	2988.988281
2583.208984	3052.018311
2581.794922	3051.415283
2580.378906	3063.178223
2578.963867	3023.716797
2577.547852	2971.909912
2576.131836	3036.645752
2574.715820	3092.530029
2573.298828	3084.859619
2571.881836	3131.889893
2570.464844	2933.691895
2569.047852	2968.386719
2567.629883	3055.969727
2566.211914	3069.469971
2564.793945	3021.270020
2563.375000	3031.246582
2561.956055	3035.933105
2560.537109	3030.047607
2559.118164	3015.357910
2557.698242	3035.892822
2556.278320	3095.153076
2554.857422	3103.341797
2553.437500	3108.007568
2552.016602	3054.605713
2550.595703	3101.500000
2549.173828	3165.964355
2547.752930	3066.860596
2546.330078	3060.979004
2544.908203	3012.911865
2543.485352	3170.488281
2542.063477	3036.318604
2540.639648	3065.582764
2539.216797	3079.027344
2537.792969	3259.294189
2536.369141	3125.212646
2534.945313	3075.442871
2533.520508	2990.591797
2532.095703	3119.846680
2530.670898	3006.950439
2529.245117	3094.054688
2527.819336	3014.527344
2526.393555	3068.282471
2524.967773	3022.097656
2523.541016	3030.261719
2522.114258	3027.908936
2520.687500	2983.510986
2519.260742	3040.721191
2517.833008	3167.957520
2516.405273	3071.031494
2514.976563	3105.433105
2513.547852	3033.060059
2512.119141	3065.705322
2510.690430	3100.087158
2509.261719	3099.472412
2507.832031	3042.896240
2506.402344	3042.292725
2504.971680	3097.628418
2503.541016	3090.022949
2502.110352	3129.600098
2500.679688	3141.208496
2499.248047	3117.877930
2497.816406	3103.288330
2496.384766	3195.211426
2494.953125	3124.750488
2493.520508	3092.714355
2492.087891	3086.865479
2490.655273	3074.040283
2489.221680	2972.261475
2487.788086	3083.283447
2486.354492	3086.158447
2484.919922	3050.680664
2483.485352	3133.734131
2482.050781	3124.398926
2480.616211	3090.676514
2479.180664	3112.706787
2477.745117	3098.156250
2476.309570	3141.070068
2474.873047	3069.072266
2473.437500	3152.005371
2472.000000	3046.971191
2470.563477	3108.998047
2469.125977	3075.330811
2467.688477	3112.979492
2466.250977	3152.352051
2464.812500	3151.725586
2463.374023	3104.171387
2461.935547	3146.997070
2460.497070	3085.563477
2459.057617	3072.790771
2457.618164	3099.966553
2456.177734	3156.648926
2454.738281	3102.205566
2453.297852	3089.439209
2451.857422	3066.265869
2450.416016	3138.523682
2448.974609	3101.472656
2447.533203	3050.562012
2446.091797	3124.513428
2444.649414	3153.362305
2443.207031	3085.139160
2441.764648	3155.573242
2440.321289	3184.398193
2438.877930	3119.673340
2437.434570	3153.689209
2435.990234	3158.255859
2434.546875	3116.079346
2433.101563	3120.651367
2431.657227	3087.151123
2430.211914	3173.042480
2428.766602	3111.868408
2427.321289	3183.884766
2425.875977	3221.290527
2424.429688	3182.616455
2422.983398	3183.710693
2421.536133	3132.962891
2420.089844	3099.512207
2418.642578	3088.530518
2417.194336	3144.906738
2415.747070	3045.859375
2414.298828	3098.768555
2412.849609	3182.724609
2411.401367	3178.638916
2409.952148	3096.916016
2408.502930	3132.522705
2407.052734	3214.679688
2405.603516	3158.862061
2404.152344	3125.477539
2402.703125	3166.220215
2401.251953	3169.035156
2399.800781	3225.258789
2398.349609	3193.609375
2396.898438	3143.028320
2395.445313	3194.057373
2393.994141	3131.445313
2392.541016	3199.667480
2391.087891	3211.074951
2389.634766	3208.713623
2388.181641	3177.110596
2386.728516	3169.597412
2385.275391	3155.208984
2383.820313	3073.780762
2382.365234	3128.167725
2380.910156	3155.038086
2379.455078	3133.791260
2378.000000	3133.165527
2376.544922	3141.126709
2375.089844	3126.762939
2373.632813	3107.254639
2372.175781	3151.259766
2370.718750	3148.914307
2369.261719	3146.569580
2367.804688	3137.364258
2366.347656	3171.037354
2364.888672	3110.390625
2363.429688	3051.482422
2361.972656	3116.003662
2360.513672	3135.944336
2359.054688	3066.786133
2357.593750	3129.552002
2356.134766	3144.339844
2354.673828	3150.560303
2353.214844	3110.556396
2351.753906	3169.839600
2350.292969	3121.291260
2348.832031	3067.629395
2347.369141	3138.858887
2345.908203	3150.202637
2344.445313	3197.448730
2342.984375	3066.885254
2341.521484	3093.618652
2340.058594	3144.264893
2338.593750	3078.712891
2337.130859	3201.083984
2335.667969	3118.468506
2334.203125	3081.987305
2332.738281	3190.626953
2331.273438	3077.340332
2329.808594	3156.927246
2328.343750	3159.707520
2326.878906	3056.729004
2325.412109	3170.380371
2323.945313	3171.450684
2322.478516	3162.291748
2321.011719	3095.187012
2319.544922	3092.863037
2318.078125	3143.354980
2316.611328	3103.547852
2315.142578	3145.501953
2313.673828	3081.872070
2312.205078	3207.228516
2310.736328	3203.181885
2309.267578	3127.666748
2307.798828	3111.728027
2306.328125	3077.084473
2304.859375	3076.467773
2303.388672	3114.958252
2301.917969	3153.432861
2300.447266	3106.910889
2298.974609	3050.211670
2297.503906	3049.600098
2296.031250	3172.986328
2294.560547	3109.514404
2293.087891	3307.547363
2291.615234	5016.346191
2290.142578	4881.258301
2288.667969	4988.880371
2287.195313	3316.770264
2285.720703	3095.596680
2284.246094	3157.722900
2282.773438	3065.530273
2281.296875	3097.123779
2279.822266	3142.263428
2278.347656	3146.716309
2276.871094	3171.497314
2275.396484	3087.862793
2273.919922	3178.691650
2272.443359	3118.792969
2270.966797	3190.957764
2269.488281	2999.067383
2268.011719	3140.604492
2266.533203	3092.603516
2265.056641	3119.045654
2263.578125	3108.272461
2262.099609	3077.214111
2260.619141	3156.046387
2259.140625	3145.271729
2257.662109	3082.118896
2256.181641	3157.523438
2254.701172	3128.174561
2253.220703	3157.943115
2251.740234	3221.467773
2250.259766	3134.729004
2248.777344	3103.719971
2247.296875	3194.214600
2245.814453	3149.709473
2244.332031	3228.351318
2242.849609	3183.856689
2241.367188	3063.508545
2239.884766	3137.062744
2238.400391	3112.836914
2236.917969	3150.966064
2235.433594	3153.701416
2233.949219	3174.963379
2232.464844	3118.752930
2230.978516	3082.768555
2229.494141	3122.547852
2228.009766	3169.042969
2226.523438	3122.973877
2225.037109	3058.418213
2223.550781	3205.814941
2222.064453	3156.402588
2220.576172	3281.863525
2219.089844	3272.798096
2217.601563	3201.553711
2216.115234	3214.351074
2214.626953	3124.667725
2213.138672	3184.503662
2211.648438	3150.277344
2210.160156	3119.422363
2208.669922	3209.437012
2207.181641	3232.285889
2205.691406	3186.331299
2204.201172	3121.942139
2202.710938	3178.338623
2201.218750	3206.205322
2199.728516	3172.028076
2198.236328	3149.598145
2196.744141	3207.618896
2195.251953	3235.456299
2193.759766	3241.504883
2192.267578	3215.728516
2190.775391	3248.570801
2189.281250	3242.893066
2187.787109	3272.368408
2186.294922	3214.809326
2184.800781	3112.097412
2183.304688	3188.420166
2181.810547	3222.899414
2180.316406	3295.824219
2178.820313	3276.769287
2177.324219	3257.721924
2175.828125	3135.070801
2174.332031	3112.717773
2172.835938	3212.317871
2171.337891	3139.853760
2169.841797	3269.464355
2168.343750	3257.118164
2166.845703	3226.416504
2165.347656	3245.790527
2163.849609	3326.889404
2162.351563	3211.117920
2160.851563	3257.167236
2159.353516	3231.497803
2157.853516	3225.843750
2156.353516	3253.527344
2154.853516	3276.200195
2153.353516	3272.206299
2151.851563	3306.526123
2150.351563	3262.557129
2148.849609	3221.935791
2147.347656	3292.868896
2145.845703	3288.874756
2144.343750	3313.171143
2142.839844	3192.712402
2141.337891	3291.871094
2139.833984	3188.095703
2138.330078	3388.641357
2136.826172	3266.601563
2135.322266	3224.389648
2133.818359	3381.601074
2132.314453	3289.541260
2130.808594	3257.315918
2129.302734	3354.639160
2127.796875	3274.262695
2126.291016	3173.997803
2124.785156	3214.848389
2123.279297	3263.979004
2121.771484	3266.636719
2120.263672	3267.634521
2118.757813	3316.724121
2117.250000	3269.628174
2115.740234	3331.958496
2114.232422	3352.829834
2112.724609	3257.700928
2111.214844	3334.905518
2109.705078	3284.540039
2108.195313	3295.467041
2106.685547	3250.096436
2105.175781	3307.375244
2103.664063	3281.880371
2102.154297	3269.633057
2100.642578	3331.835449
2099.130859	3306.350586
2097.619141	3335.446777
2096.107422	3367.837646
2094.595703	3261.363525
2093.082031	3262.355225
2091.570313	3339.353516
2090.056641	3264.337158
2088.542969	3336.348389
2087.029297	3281.178467
2085.513672	3222.728760
2084.000000	3309.560059
2082.484375	3265.980957
2080.968750	3387.417480
2079.455078	3249.809814
2077.937500	3392.641113
2076.421875	3362.271484
2074.906250	3313.778809
2073.388672	3322.996582
2071.873047	3320.674316
2070.355469	3280.457275
2068.837891	3403.339844
2067.320313	3396.061523
2065.800781	3357.499756
2064.283203	3345.294189
2062.763672	3352.845215
2061.244141	3357.101563
2059.724609	3341.612549
2058.205078	3373.833496
2056.685547	3338.611328
2055.164063	3434.947266
2053.644531	3384.930664
2052.123047	3318.498047
2050.601563	3391.772705
2049.080078	3325.365234
2047.558594	3262.269775
2046.035156	3424.194824
2044.513672	3398.869629
2042.990234	3381.762939
2041.466797	3330.195557
2039.943359	3367.261230
2038.419922	3396.108154
2036.896484	3354.410645
2035.371094	3307.809814
2033.847656	3364.524658
2032.322266	3368.758789
2030.796875	3341.850586
2029.271484	3347.725586
2027.744141	3453.534424
2026.218750	3441.366455
2024.691406	3362.060303
2023.164063	3407.220947
2021.636719	3327.953613
2020.109375	3469.664063
2018.582031	3356.053467
2017.054688	3375.002441
2015.525391	3418.478027
2013.996094	3427.594238
2012.468750	3353.323242
2010.939453	3396.776123
2009.408203	3335.615479
2007.878906	3511.405762
2006.347656	3371.831543
2004.818359	3457.710449
2003.287109	3439.043945
2001.755859	3446.507080
2000.224609	3287.471436
1998.691406	3487.535156
1997.160156	3434.612305
1995.626953	3445.332031
1994.093750	3376.129150
1992.560547	3308.584961
1991.027344	3320.953613
1989.494141	3352.876709
1987.960938	3467.898926
1986.425781	3402.019775
1984.890625	3381.778564
1983.355469	3459.264893
1981.820313	3474.843262
1980.285156	3472.507080
1978.750000	3403.437500
1977.212891	3396.234619
1975.675781	3338.597412
1974.138672	3453.409912
1972.601563	3439.695068
1971.064453	3450.375732
1969.527344	3384.645508
1967.988281	3478.224854
1966.451172	3492.140381
1964.912109	3575.911377
1963.373047	3463.102295
1961.833984	3488.379883
1960.292969	3492.539307
1958.753906	3486.956543
1957.212891	3455.407715
1955.671875	3451.457275
1954.130859	3441.018799
1952.589844	3385.167725
1951.048828	3442.857666
1949.505859	3459.989990
1947.964844	3548.440430
1946.421875	3460.197998
1944.878906	3472.454590
1943.335938	3453.925049
1941.792969	3495.332275
1940.248047	3449.275635
1938.705078	3537.618896
1937.160156	3365.312256
1935.615234	3481.148682
1934.070313	3451.312500
1932.525391	3406.928955
1930.978516	3511.363281
1929.433594	3408.770752
1927.886719	3576.214600
1926.339844	3454.253418
1924.792969	3413.145752
1923.246094	3480.309082
1921.699219	3442.443359
1920.150391	3464.350586
1918.601563	3554.068604
1917.052734	3530.739990
1915.503906	3573.598389
1913.955078	3458.290527
1912.406250	3589.884766
1910.855469	3524.626465
1909.306641	3514.228760
1907.755859	3437.725098
1906.205078	3485.385254
1904.654297	3505.625244
1903.101563	3551.640137
1901.550781	3497.746338
1899.998047	3519.581543
1898.447266	3609.047119
1896.894531	3482.718262
1895.339844	3602.740479
1893.787109	3516.700928
1892.234375	3478.970703
1890.679688	3515.260986
1889.125000	3543.494141
1887.570313	3480.050293
1886.015625	3503.455078
1884.460938	3536.495117
1882.906250	3550.235107
1881.349609	3520.584961
1879.792969	3535.928711
1878.236328	3554.478516
1876.679688	3577.838135
1875.123047	3477.562500
1873.566406	3582.792725
1872.007813	3673.535645
1870.449219	3493.074707
1868.890625	3627.112305
1867.332031	3576.648438
1865.773438	3542.240723
1864.214844	3579.991699
1862.654297	3494.304443
1861.093750	3599.357178
1859.533203	3649.890625
1857.972656	3540.212402
1856.412109	3438.586914
1854.851563	3583.595215
1853.289063	3624.484131
1851.728516	3567.719971
1850.166016	3606.994385
1848.603516	3572.655762
1847.039063	3623.110107
1845.476563	3607.973145
1843.914063	3666.393799
1842.349609	3641.661865
1840.785156	3645.709229
1839.220703	3633.775146
1837.656250	3589.893066
1836.091797	3542.833984
1834.525391	3617.164551
1832.958984	3597.261963
1831.392578	3599.715820
1829.826172	3637.280518
1828.259766	3644.511963
1826.693359	3658.121338
1825.125000	3601.544434
1823.558594	3675.754639
1821.990234	3651.084229
1820.421875	3651.927979
1818.853516	3517.306396
1817.285156	3623.339844
1815.714844	3644.897705
1814.144531	3591.588867
1812.576172	3619.513672
1811.005859	3559.863037
1809.433594	3570.273438
1807.863281	3599.776123
1806.292969	3654.723877
1804.720703	3550.572998
1803.148438	3654.811279
1801.576172	3687.451904
1800.003906	3575.408936
1798.431641	3614.409668
1796.857422	3647.037842
1795.285156	3679.652100
1793.710938	3554.994385
1792.136719	3620.964844
1790.562500	3715.488770
1788.986328	3655.986816
1787.412109	3613.968262
1785.835938	3670.350342
1784.259766	3541.087646
1782.683594	3662.494629
1781.107422	3639.538574
1779.531250	3600.736572
1777.955078	3774.367432
1776.376953	3684.836914
1774.798828	3606.435059
1773.220703	3676.982422
1771.642578	3657.218262
1770.064453	3700.804688
1768.484375	3673.127197
1766.906250	3691.365479
1765.326172	3706.430664
1763.746094	3746.805908
1762.166016	3687.501953
1760.583984	3761.077881
1759.003906	3685.981934
1757.421875	3685.222168
1755.841797	3605.430664
1754.259766	3639.454102
1752.675781	3654.503662
1751.093750	3600.041748
1749.511719	3675.107178
1747.927734	3660.138184
1746.343750	3670.434082
1744.759766	3747.016357
1743.175781	3654.717773
1741.591797	3646.075195
1740.005859	3799.906250
1738.421875	3669.803711
1736.835938	3736.845703
1735.250000	3732.921875
1733.664063	3736.879639
1732.076172	3699.865967
1730.490234	3769.996582
1728.902344	3690.463135
1727.316406	3628.284912
1725.728516	3824.342285
1724.138672	3759.013428
1722.550781	3660.661621
1720.962891	3730.711914
1719.373047	3695.332031
1717.783203	3664.685059
1716.193359	3718.965576
1714.603516	3760.646240
1713.013672	3731.575928
1711.421875	3821.953369
1709.830078	3714.322021
1708.240234	3788.956543
1706.648438	3788.173340
1705.054688	3749.705078
1703.462891	3766.198975
1701.871094	3704.206787
1700.277344	3744.241455
1698.683594	3754.449951
1697.089844	3755.242188
1695.496094	3804.650635
1693.902344	3786.616455
1692.306641	3790.536133
1690.710938	3780.348389
1689.117188	3749.793701
1687.521484	3791.317627
1685.923828	3782.701660
1684.328125	3863.351563
1682.730469	3845.329590
1681.134766	3791.311523
1679.537109	3846.868408
1677.939453	3872.672363
1676.341797	3790.522461
1674.742188	3780.353271
1673.144531	3848.375488
1671.544922	3830.381104
1669.945313	3809.267822
1668.345703	3870.989990
1666.746094	3859.251221
1665.144531	3872.510986
1663.544922	3795.180664
1661.943359	3858.415039
1660.341797	3837.320801
1658.740234	3753.801758
1657.138672	3809.202393
1655.535156	3717.922363
1653.933594	3913.694580
1652.330078	3805.275146
1650.726563	3832.552490
1649.123047	3862.936035
1647.519531	3863.693848
1645.914063	3817.703613
1644.310547	3746.805664
1642.705078	3674.379150
1641.099609	3732.793701
1639.494141	3841.006592
1637.888672	3872.899170
1636.281250	3795.836670
1634.675781	3837.061035
1633.068359	3798.929199
1631.460938	3886.795410
1629.853516	3885.989014
1628.244141	3864.971680
1626.636719	3794.222900
1625.027344	3829.178711
1623.417969	3828.384033
1621.808594	3877.298340
1620.199219	3837.666504
1618.589844	3855.502930
1616.978516	3905.932861
1615.369141	3894.257080
1613.757813	3853.101807
1612.146484	3777.831055
1610.535156	3843.745850
1608.921875	3745.245605
1607.310547	3849.901855
1605.697266	3847.552002
1604.083984	3871.550537
1602.470703	3819.611328
1600.857422	3825.014648
1599.242188	3841.257568
1597.628906	3848.202148
1596.013672	3878.367432
1594.398438	3896.136475
1592.783203	3776.160889
1591.167969	3814.058105
1589.550781	3780.778809
1587.935547	3801.645752
1586.318359	3898.273438
1584.701172	3877.364746
1583.083984	3834.825195
1581.466797	3914.386230
1579.847656	3865.675781
1578.230469	3837.066895
1576.611328	3884.144775
1574.992188	3830.838379
1573.373047	3840.847412
1571.751953	3883.264160
1570.132813	3921.033691
1568.511719	3864.677490
1566.890625	3927.114258
1565.269531	3906.248779
1563.648438	3916.228516
1562.027344	3876.875488
1560.404297	3843.703613
1558.783203	3818.249512
1557.160156	3943.778564
1555.537109	3807.418213
1553.912109	3940.596191
1552.289063	3905.904785
1550.664063	3935.876221
1549.041016	3848.875977
1547.416016	3815.763184
1545.791016	3930.340088
1544.164063	3886.457764
1542.539063	3868.733887
1540.912109	3846.404785
1539.287109	3893.250488
1537.660156	3898.585693
1536.033203	3900.845703
1534.404297	3714.170410
1532.777344	3929.934082
1531.148438	3850.808594
1529.519531	3916.014648
1527.890625	3910.593506
1526.261719	3925.122559
1524.632813	3921.235596
1523.001953	3921.951416
1521.373047	3902.731201
1519.742188	3829.858154
1518.111328	3861.248779
1516.478516	3897.223877
1514.847656	3865.766357
1513.214844	3849.640625
1511.583984	3815.142578
1509.951172	3939.908936
1508.318359	3842.637695
1506.683594	3840.304932
1505.050781	3842.563721
1503.416016	3906.020264
1501.783203	3854.725830
1500.148438	3830.980957
1498.511719	3908.160400
1496.876953	3936.389404
1495.242188	3875.960449
1493.605469	3859.870117
1491.968750	3787.260254
1490.332031	3936.155762
1488.695313	3968.929443
1487.058594	3936.037598
1485.419922	3915.371094
1483.781250	3876.399170
1482.142578	3874.062988
1480.503906	3870.202148
1478.865234	3844.990234
1477.226563	3877.733398
1475.585938	3870.824219
1473.945313	3938.604980
1472.304688	3905.779297
1470.664063	3810.499756
1469.023438	3829.505371
1467.380859	3790.630371
1465.740234	3904.034912
1464.097656	3930.619873
1462.455078	3905.445557
1460.812500	3921.366699
1459.167969	3879.469482
1457.525391	3795.000244
1455.880859	3921.946533
1454.236328	3966.737793
1452.591797	3861.021484
1450.947266	3910.365479
1449.302734	3912.585693
1447.656250	3876.826416
1446.009766	3913.984863
1444.363281	3899.498779
1442.716797	3894.127441
1441.070313	3899.383301
1439.421875	3989.618896
1437.775391	3915.956299
1436.126953	3855.976563
1434.478516	3806.637695
1432.830078	3925.625488
1431.179688	3864.164795
1429.531250	3957.324219
1427.880859	3791.325195
1426.230469	3848.100342
1424.580078	3901.822266
1422.929688	3816.199951
1421.279297	3960.748291
1419.626953	3790.379883
1417.974609	3934.872803
1416.322266	3911.351074
1414.669922	3848.506836
1413.017578	3932.397461
1411.363281	3884.696045
1409.710938	3849.109131
1408.056641	3938.991943
1406.402344	3805.180664
1404.748047	3848.197510
1403.091797	3853.432129
1401.437500	3925.114990
1399.781250	3779.338379
1398.125000	3968.755371
1396.468750	3792.844727
1394.812500	3743.761230
1393.154297	3966.256348
1391.498047	3801.014404
1389.839844	3898.237793
1388.181641	3817.510498
1386.523438	3810.679199
1384.865234	3788.779785
1383.205078	3864.828369
1381.544922	3794.720215
1379.884766	3815.008545
1378.224609	3847.334717
1376.564453	3790.823242
1374.904297	3890.873047
1373.242188	3745.589111
1371.580078	3818.524170
1369.919922	3880.898926
1368.255859	3789.848633
1366.593750	3867.238525
1364.931641	3831.850098
1363.267578	3775.434814
1361.603516	3765.625000
1359.939453	3821.921387
1358.275391	3752.025146
1356.611328	3802.293457
1354.945313	3813.504639
1353.279297	3812.702393
1351.613281	3852.420410
1349.947266	3802.095459
1348.281250	3775.793213
1346.615234	3782.497559
1344.947266	3790.698486
1343.279297	3876.852295
1341.611328	3828.072998
1339.943359	3821.272949
1338.275391	3898.375977
1336.605469	3720.802002
1334.935547	3842.821045
1333.267578	3867.465332
1331.597656	3778.330078
1329.925781	3801.480713
1328.255859	3769.256836
1326.583984	3823.815430
1324.912109	3751.216064
1323.240234	3747.435059
1321.568359	3742.160156
1319.896484	3823.583008
1318.224609	3834.732666
1316.550781	3795.077148
1314.876953	3786.808105
1313.203125	3730.750488
1311.529297	3865.843262
1309.853516	3821.735107
1308.179688	3752.271973
1306.503906	3755.957520
1304.828125	3717.867188
1303.152344	3791.663330
1301.474609	3877.358643
1299.798828	3810.937500
1298.121094	3850.381592
1296.443359	3804.858643
1294.765625	3778.725342
1293.087891	3803.253174
1291.410156	3857.558350
1289.730469	3795.691650
1288.050781	3896.127197
1286.371094	3902.747070
1284.691406	3876.624512
1283.011719	3849.025146
1281.332031	3811.024414
1279.650391	3773.039551
1277.968750	3799.006836
1276.287109	3827.936035
1274.605469	3788.484619
1272.921875	3691.097656
1271.240234	3779.456055
1269.556641	3835.099609
1267.873047	3800.134277
1266.189453	3851.295410
1264.505859	3733.215576
1262.820313	3765.076172
1261.134766	3709.381348
1259.451172	3806.504395
1257.765625	3749.340820
1256.078125	3661.062256
1254.392578	3741.825684
1252.705078	3816.625977
1251.019531	3753.580078
1249.332031	3791.306885
1247.642578	3744.586426
1245.955078	3742.313477
1244.267578	3710.428711
1242.578125	3718.525635
1240.888672	3738.458740
1239.199219	3782.058105
1237.509766	3825.638672
1235.818359	3687.277344
1234.128906	3761.912598
1232.437500	3762.594727
1230.746094	3705.629883
1229.054688	3778.735352
1227.363281	3760.205566
1225.669922	3797.815918
1223.976563	3746.798340
1222.283203	3599.826660
1220.589844	3807.213623
1218.896484	3728.183105
1217.203125	3634.429932
1215.507813	3788.566406
1213.812500	3724.339355
1212.117188	3649.816650
1210.421875	3687.376465
1208.726563	3657.114258
1207.029297	3762.447998
1205.332031	3677.665527
1203.636719	3746.122070
1201.937500	3692.307373
1200.240234	3760.731445
1198.542969	3661.298340
1196.843750	3762.080566
1195.144531	3767.168945
1193.445313	3719.290283
1191.746094	3642.013428
1190.046875	3736.830811
1188.345703	3640.468506
1186.644531	3745.535400
1184.943359	3774.134277
1183.242188	3671.947266
1181.541016	3796.037598
1179.837891	3752.638428
1178.136719	3704.852295
1176.433594	3707.002197
1174.730469	3723.828857
1173.027344	3747.985840
1171.322266	3709.043213
1169.619141	3692.120117
1167.914063	3801.328125
1166.208984	3709.613281
1164.503906	3653.119873
1162.796875	3747.609619
1161.091797	3833.267334
1159.384766	3737.227783
1157.677734	3806.739014
1155.970703	3712.209717
1154.263672	3772.911865
1152.554688	3717.950928
1150.847656	3683.501465
1149.138672	3758.801758
1147.429688	3731.671875
1145.720703	3729.416016
1144.009766	3760.791748
1142.300781	3705.901855
1140.589844	3800.116943
1138.878906	3718.938721
1137.167969	3772.203369
1135.455078	3758.255127
1133.744141	3862.600342
1132.031250	3775.636963
1130.318359	3742.719727
1128.605469	3768.192871
1126.892578	3707.568115
1125.179688	3756.377930
1123.464844	3748.286133
1121.750000	3827.687500
1120.035156	3732.112061
1118.320313	3798.364746
1116.605469	3841.273193
1114.888672	3747.212158
1113.171875	3733.304688
1111.455078	3832.994629
1109.738281	3756.466553
1108.021484	3816.805420
1106.302734	3735.946777
1104.585938	3848.645996
1102.867188	3814.366699
1101.148438	3819.371826
1099.429688	3770.571533
1097.708984	3731.968750
1095.990234	3760.243652
1094.269531	3775.427490
1092.548828	3815.303955
1090.828125	3815.943115
1089.105469	3787.536377
1087.384766	3760.593506
1085.662109	3743.823486
1083.939453	3757.538574
1082.216797	3732.069580
1080.492188	3687.751709
1078.769531	3707.271240
1077.044922	3749.983643
1075.320313	3633.199707
1073.595703	3651.267822
1071.871094	3718.600342
1070.146484	3675.789551
1068.419922	3660.519531
1066.693359	3726.357910
1064.966797	3570.632568
1063.240234	3632.118652
1061.513672	3648.711182
1059.785156	3637.803223
1058.056641	3634.133057
1056.328125	3568.269043
1054.599609	3639.811523
1052.871094	3614.455811
1051.140625	3635.365967
1049.412109	3531.982910
1047.681641	3564.459961
1045.951172	3573.810303
1044.218750	3586.044922
1042.488281	3517.413818
1040.755859	3562.858154
1039.023438	3559.209961
1037.291016	3617.612549
1035.558594	3549.032471
1033.826172	3627.605225
1032.091797	3573.472656
1030.357422	3510.712646
1028.623047	3590.683838
1026.888672	3487.593994
1025.154297	3486.848145
1023.417969	3550.926514
1021.681641	3466.633789
1019.945313	3558.047119
1018.208984	3506.899414
1016.472656	3444.259033
1014.734375	3539.934814
1012.998047	3412.572754
1011.259766	3430.541260
1009.521484	3458.568604
1007.783203	3431.948486
1006.042969	3504.524170
1004.302734	3426.167725
1002.564453	3454.171143
1000.824219	3485.035400
999.082031	3319.122803
997.341797	3462.003906
995.599609	3399.531250
993.859375	3494.968506
992.117188	3458.344971
990.373047	3476.254883
988.630859	3415.266113
986.886719	3385.852783
985.144531	3408.067627
983.400391	3400.169922
981.656250	3373.644287
979.910156	3361.458496
978.166016	3350.710205
976.419922	3338.533936
974.673828	3495.330078
972.927734	3295.585693
971.181641	3377.895020
969.433594	3334.240479
967.687500	3303.480713
965.939453	3342.822998
964.191406	3319.224609
962.441406	3424.316162
960.693359	3283.493408
958.943359	3317.088867
957.195313	3344.954102
955.445313	3361.378906
953.693359	3322.094971
951.943359	3378.499268
950.191406	3320.668945
948.441406	3241.453125
946.689453	3202.227783
944.935547	3287.142822
943.183594	3302.127441
941.431641	3251.504883
939.677734	3307.838379
937.923828	3251.533936
936.169922	3213.780762
934.414063	3201.691406
932.660156	3361.979492
930.904297	3210.285645
929.148438	3302.152832
927.392578	3272.970215
925.636719	3208.216309
923.878906	3223.180176
922.123047	3292.201172
920.365234	3236.018799
918.607422	3238.167236
916.849609	3274.438232
915.089844	3212.609375
913.330078	3153.649170
911.572266	3290.797852
909.812500	3203.434082
908.050781	3245.353516
906.291016	3213.415771
904.529297	3197.107910
902.767578	3280.162842
901.005859	3184.379883
899.244141	3173.763184
897.482422	3158.895752
895.718750	3127.016602
893.957031	3173.132080
892.193359	3121.417725
890.427734	3195.859131
888.664063	3190.920166
886.898438	3112.318848
885.134766	3249.031250
883.369141	3193.107178
881.603516	3033.860107
879.835938	3057.268555
878.070313	3114.628906
876.302734	3146.498047
874.535156	3162.793945
872.767578	3105.545166
871.000000	3090.737061
869.230469	3163.576904
867.460938	3039.940674
865.693359	3077.435303
863.921875	3003.313721
862.152344	2991.367432
860.382813	3086.741699
858.611328	3018.312500
856.839844	3143.279785
855.068359	3070.633789
853.296875	3027.646729
851.523438	2991.730225
849.751953	3057.365479
847.978516	2990.439697
846.205078	3039.130859
844.431641	3037.065918
842.656250	3037.819580
840.880859	2993.494141
839.107422	3087.210693
837.332031	2975.304688
835.554688	2908.496338
833.779297	2966.982910
832.001953	2942.420166
830.226563	2950.226074
828.447266	2929.896729
826.669922	2936.295410
824.892578	2959.562744
823.113281	3006.716064
821.333984	2909.096680
819.554688	2950.619873
817.775391	2952.791748
815.996094	2978.838135
814.214844	2944.495117
812.435547	2956.493164
810.654297	2944.625977
808.871094	2900.489014
807.089844	2846.550537
805.306641	2904.845703
803.525391	2929.459473
801.742188	2888.167236
799.958984	2966.039063
798.173828	2882.713867
796.390625	2914.316162
794.605469	2936.098633
792.820313	2900.450684
791.035156	2842.414795
789.248047	2936.993164
787.462891	2961.550293
785.675781	2860.160156
783.888672	2884.723145
782.101563	2919.065918
780.314453	2873.685547
778.525391	2902.423340
776.736328	2826.314697
774.947266	2863.434814
773.158203	2851.637207
771.369141	2916.672852
769.578125	2906.265137
767.789063	2856.766113
765.998047	2804.496582
764.207031	2806.680420
762.414063	2856.305420
760.623047	2799.884033
758.830078	2863.436279
757.037109	2871.182373
755.244141	2848.253662
753.451172	2860.180908
751.656250	2802.425537
749.863281	2874.266846
748.068359	2780.316406
746.271484	2811.744141
744.476563	2798.603516
742.681641	2742.314941
740.884766	2822.440918
739.087891	2745.299805
737.291016	2726.619629
735.494141	2848.421143
733.695313	2754.637695
731.896484	2781.844727
730.097656	2742.322998
728.298828	2783.416504
726.500000	2752.247314
724.701172	2775.263428
722.900391	2703.836182
721.099609	2635.216797
719.298828	2767.903809
717.496094	2757.588135
715.695313	2723.688965
713.892578	2732.807861
712.089844	2746.083496
710.287109	2678.929688
708.484375	2650.621582
706.679688	2677.765869
704.876953	2639.770020
703.072266	2725.091553
701.267578	2637.237793
699.460938	2665.745605
697.656250	2683.164795
695.849609	2665.971191
694.042969	2758.112793
692.236328	2638.523682
690.429688	2711.264893
688.621094	2669.185303
686.812500	2658.926025
685.005859	2655.583008
683.195313	2700.614502
681.386719	2697.263672
679.578125	2689.769287
677.767578	2638.080078
675.957031	2691.360840
674.146484	2618.984375
672.333984	2550.780273
670.523438	2590.244873
668.710938	2610.376465
666.898438	2658.086914
665.085938	2578.900146
663.273438	2621.081055
661.458984	2540.557861
659.644531	2562.055908
657.830078	2675.862793
656.015625	2642.217773
654.201172	2612.719238
652.384766	2617.657959
650.570313	2581.293945
648.753906	2597.248291
646.935547	2544.390869
645.119141	2571.352295
643.300781	2614.807617
641.484375	2610.112061
639.666016	2610.917969
637.847656	2617.221924
636.027344	2539.690918
634.208984	2567.991211
632.388672	2662.216064
630.568359	2586.098877
628.748047	2559.446045
626.925781	2525.940918
625.105469	2544.604736
623.283203	2552.282959
621.460938	2618.948975
619.636719	2588.202393
617.814453	2594.494141
615.990234	2559.653076
614.167969	2519.344238
612.343750	2565.387939
610.517578	2488.102295
608.693359	2508.106201
606.867188	2533.579346
605.041016	2568.625488
603.214844	2559.851074
601.388672	2541.500244
599.562500	2534.103760
597.734375	2523.974121
595.906250	2610.956055
594.078125	2542.015381
592.250000	2520.953369
590.419922	2527.236572
588.591797	2554.014648
586.761719	2461.920166
584.931641	2449.088867
583.099609	2530.490479
581.269531	2538.129395
579.437500	2503.448975
577.605469	2545.208008
575.773438	2622.423828
573.941406	2555.008057
572.107422	2535.355713
570.273438	2549.800049
568.439453	2583.323242
566.605469	2533.692627
564.771484	2490.896484
562.935547	2542.120361
561.101563	2527.943848
559.265625	2569.604492
557.427734	2450.596680
555.591797	2524.923340
553.753906	2469.936768
551.917969	2503.409912
550.080078	2494.700439
548.240234	2480.554688
546.402344	2437.862061
544.562500	2437.328369
542.724609	2440.871826
540.884766	2485.176270
539.042969	2415.350342
537.203125	2450.133545
535.361328	2393.924072
533.519531	2444.987305
531.677734	2406.447998
529.835938	2442.558838
527.994141	2328.062500
526.150391	2400.796875
524.306641	2340.603027
522.462891	2260.098389
520.619141	2301.623047
518.773438	2297.052979
516.927734	2348.035156
515.082031	2323.137451
513.236328	2300.959229
511.390625	2254.418457
509.542969	2325.670410
507.697266	2317.039795
505.849609	2343.593750
504.000000	2298.436523
502.152344	2303.342285
500.302734	2274.439941
498.455078	2202.288818
496.605469	2281.551514
494.753906	2267.537354
492.904297	2177.871094
491.052734	2251.683838
489.203125	2289.001709
487.351563	2237.193604
485.498047	2320.392822
483.646484	2213.268555
481.792969	2254.609375
479.939453	2196.108887
478.085938	2272.500244
476.232422	2242.336914
474.376953	2186.573242
472.523438	2198.222656
470.667969	2192.349609
468.812500	2237.672119
466.955078	2160.407471
465.099609	2258.233887
463.242188	2201.192871
461.384766	2196.670898
459.527344	2205.607910
457.667969	2207.813721
455.810547	2146.798096
453.951172	2115.395020
452.091797	2176.777832
450.232422	2213.937256
448.371094	2142.221924
446.511719	2143.094238
444.650391	2145.309326
442.789063	2210.646240
440.927734	2116.167480
439.064453	2119.729004
437.201172	2124.631104
435.337891	2081.223877
433.474609	2123.695557
431.611328	2113.839111
429.748047	2044.984009
427.882813	2151.787842
426.017578	2119.144775
424.152344	2058.374023
422.285156	2087.395996
420.419922	2050.769775
418.552734	2057.013916
416.685547	2045.849487
414.818359	2053.430176
412.949219	2086.435547
411.082031	2040.483032
409.212891	2046.721924
407.343750	2036.908691
405.472656	2069.887939
403.603516	2069.431641
401.732422	2059.619629
399.861328	2088.562988
397.990234	2011.952637
396.119141	2052.914551
394.246094	1966.998047
392.375000	2068.029785
390.501953	1960.791138
388.628906	1984.379150
386.753906	2005.288330
384.880859	2076.876221
383.005859	1981.732056
381.130859	1959.961792
379.253906	1950.197998
377.378906	1925.778564
375.501953	1916.026367
373.626953	1900.949829
371.748047	1949.807983
369.871094	1918.751953
367.994141	1895.696899
366.115234	1908.587769
364.236328	1933.448730
362.357422	1877.146118
360.478516	1917.963623
358.597656	1888.284668
356.716797	1934.399414
354.835938	1880.804199
352.955078	1898.993042
351.074219	1914.516602
349.191406	1900.810181
347.308594	1876.485718
345.425781	1907.936157
343.542969	1859.726807
341.658203	1928.326538
339.775391	1795.215942
337.890625	1956.657593
336.005859	1847.471924
334.119141	1811.262329
332.234375	1873.167969
330.347656	1829.016113
328.460938	1776.933228
326.574219	1817.608398
324.685547	1814.557129
322.798828	1786.347290
320.910156	1788.599609
319.021484	1797.468994
317.132813	1832.800659
315.242188	1796.672974
313.351563	1825.375366
311.460938	1754.881592
309.570313	1765.070068
307.679688	1828.128296
305.787109	1786.754761
303.896484	1736.150635
302.003906	1756.901611
300.111328	1741.984741
298.216797	1696.705322
296.322266	1717.450806
294.429688	1772.502075
292.535156	1700.855347
290.638672	1725.543579
288.744141	1735.712402
286.847656	1784.117065
284.951172	1695.392334
283.054688	1735.875977
281.158203	1723.631104
279.259766	1745.645752
277.361328	1664.910767
275.462891	1729.068726
273.564453	1677.338013
271.666016	1666.435425
269.765625	1659.485474
267.865234	1685.431519
265.964844	1724.520142
264.064453	1705.725464
262.162109	1597.530029
260.261719	1636.611694
258.359375	1676.990234
256.457031	1744.943970
254.552734	1664.422485
252.650391	1625.964722
250.746094	1650.552246
248.841797	1686.943970
246.937500	1682.631592
245.031250	1674.384521
243.126953	1659.581299
241.220703	1594.942627
239.314453	1635.239624
237.406250	1675.518677
235.500000	1675.146240
233.591797	1619.734375
231.683594	1639.026855
229.775391	1638.662354
227.865234	1625.202026
225.957031	1589.489624
224.046875	1625.788330
222.136719	1616.265625
220.226563	1593.662842
218.314453	1563.221191
216.402344	1608.647949
214.490234	1631.825928
212.578125	1639.306396
210.666016	1620.643921
208.751953	1569.322754
206.839844	1631.680054
204.925781	1627.398560
203.009766	1559.134277
201.095703	1630.590576
