#Wave		#Intensity
4001.644531	-11.731149
4000.500000	-5.721601
3999.354492	56.110165
3998.209961	41.539261
3997.064453	-38.480247
3995.918945	-37.702976
3994.772461	-80.538124
3993.626953	99.172096
3992.480469	73.821892
3991.333984	24.516941
3990.187500	-72.714081
3989.040039	-4.220172
3987.893555	40.294960
3986.746094	-89.508621
3985.598633	-103.777733
3984.451172	-46.140896
3983.302734	4.959260
3982.154297	-24.506441
3981.006836	13.544089
3979.857422	5.887734
3978.708984	144.058533
3977.560547	16.742317
3976.411133	52.645042
3975.261719	27.648602
3974.112305	7.024452
3972.961914	-22.275322
3971.811523	124.530090
3970.662109	36.562271
3969.511719	-146.974716
3968.360352	-80.578903
3967.209961	27.076405
3966.058594	13.079116
3964.907227	-13.930610
3963.755859	32.894424
3962.604492	-30.991159
3961.452148	78.775528
3960.299805	214.548492
3959.147461	131.165207
3957.995117	-36.772728
3956.841797	27.404274
3955.689453	-73.222809
3954.536133	68.993233
3953.382813	-74.941254
3952.228516	91.072067
3951.075195	-78.802841
3949.920898	63.331783
3948.766602	101.456421
3947.612305	65.946175
3946.458008	-43.160263
3945.302734	53.420555
3944.147461	74.219894
3942.992188	146.946381
3941.836914	-16.169861
3940.680664	130.096039
3939.525391	-48.092434
3938.369141	24.610821
3937.211914	95.126381
3936.055664	25.120165
3934.898438	80.483231
3933.742188	62.361973
3932.584961	65.850098
3931.426758	75.816444
3930.269531	33.950386
3929.111328	11.530217
3927.953125	43.084324
3926.794922	-35.448124
3925.636719	62.994118
3924.477539	77.255142
3923.319336	-7.718805
3922.160156	32.425293
3921.000000	81.176918
3919.840820	-31.787186
3918.680664	60.061779
3917.520508	132.476364
3916.360352	21.708794
3915.200195	-11.466777
3914.040039	-100.637001
3912.878906	16.960680
3911.717773	-33.435287
3910.556641	60.416084
3909.394531	76.742683
3908.233398	185.591507
3907.071289	122.270111
3905.909180	192.337296
3904.746094	-23.678762
3903.583984	151.745056
3902.420898	-14.748254
3901.257813	117.603745
3900.094727	86.562599
3898.931641	31.888859
3897.767578	108.279160
3896.603516	17.090702
3895.439453	-190.041901
3894.275391	-62.144222
3893.111328	-75.989845
3891.946289	-21.154139
3890.781250	46.528755
3889.616211	73.411224
3888.451172	29.482874
3887.285156	-74.492813
3886.119141	134.646164
3884.953125	39.246826
3883.787109	106.789520
3882.620117	-70.031136
3881.454102	31.772663
3880.287109	169.951126
3879.120117	-2.528986
3877.952148	15.651922
3876.785156	-68.964561
3875.617188	-164.264984
3874.449219	55.109035
3873.281250	13.302426
3872.112305	198.306152
3870.944336	-42.486542
3869.775391	99.660286
3868.606445	-57.645897
3867.436523	84.428635
3866.267578	31.909040
3865.097656	86.262650
3863.927734	99.983696
3862.757813	73.094078
3861.587891	-86.236839
3860.416992	-34.083099
3859.246094	60.746365
3858.075195	25.297878
3856.904297	90.174400
3855.732422	-47.729866
3854.560547	72.589661
3853.388672	-26.883661
3852.216797	1.646000
3851.044922	-106.332138
3849.872070	-30.914646
3848.699219	33.803528
3847.526367	-20.872488
3846.353516	-79.802597
3845.179688	129.732529
3844.005859	45.208790
3842.832031	30.987469
3841.658203	78.512878
3840.484375	74.910957
3839.309570	15.953253
3838.134766	108.109856
3836.959961	193.835815
3835.785156	43.370377
3834.609375	46.095882
3833.434570	46.681175
3832.258789	-46.302399
3831.082031	92.455666
3829.906250	-70.669189
3828.729492	97.768364
3827.552734	85.530998
3826.375977	-58.421814
3825.199219	33.420181
3824.021484	6.297648
3822.844727	-54.796631
3821.666992	-1.254375
3820.489258	-77.207848
3819.310547	209.707123
3818.131836	36.125397
3816.954102	55.621304
3815.774414	-1.251766
3814.595703	100.912300
3813.416992	105.506485
3812.237305	-10.731081
3811.057617	12.928769
3809.877930	59.873749
3808.697266	-3.369443
3807.516602	49.889320
3806.336914	111.586800
3805.155273	-80.821541
3803.974609	50.706932
3802.792969	23.439396
3801.612305	-22.874149
3800.430664	-64.952896
3799.248047	-130.297333
3798.066406	7.399745
3796.883789	-57.959335
3795.701172	7.767822
3794.518555	33.298054
3793.335938	-171.545349
3792.152344	-61.500469
3790.968750	75.954536
3789.785156	6.356325
3788.601563	-80.122681
3787.417969	186.015121
3786.233398	-20.815067
3785.048828	65.789017
3783.864258	-5.914756
3782.678711	91.178238
3781.494141	-26.934563
3780.308594	-52.220230
3779.123047	13.162519
3777.937500	74.292351
3776.750977	-12.161679
3775.564453	-14.297725
3774.377930	97.336426
3773.191406	0.357538
3772.004883	-50.258743
3770.817383	-67.174469
3769.629883	75.921455
3768.442383	-115.757530
3767.254883	35.690491
3766.066406	92.375420
3764.878906	3.858423
3763.690430	-57.292152
3762.500977	-9.068456
3761.312500	-0.825270
3760.123047	-26.235025
3758.933594	15.616963
3757.744141	-87.566589
3756.554688	-37.335907
3755.364258	50.679092
3754.173828	2.123598
3752.983398	12.376595
3751.792969	112.899094
3750.602539	-53.229717
3749.411133	175.275238
3748.219727	15.470318
3747.028320	-102.324562
3745.835938	77.784058
3744.644531	45.989956
3743.452148	47.747448
3742.259766	51.590477
3741.067383	19.788177
3739.874023	65.528885
3738.680664	67.240135
3737.487305	68.941544
3736.293945	47.592667
3735.100586	-40.771748
3733.906250	-30.705570
3732.711914	-37.399887
3731.517578	125.432495
3730.323242	-23.604815
3729.127930	206.095901
3727.932617	-11.950860
3726.737305	-22.871946
3725.541992	45.662315
3724.345703	-55.183739
3723.150391	124.098389
3721.954102	12.808960
3720.757813	37.370239
3719.560547	91.159920
3718.364258	2.889679
3717.166992	14.882185
3715.969727	-0.280598
3714.771484	-94.775208
3713.574219	-145.409927
3712.375977	12.642751
3711.177734	97.604942
3709.979492	-82.394844
3708.780273	-76.717247
3707.582031	-27.257412
3706.382813	86.804787
3705.183594	-9.712799
3703.983398	-68.689384
3702.784180	-38.052292
3701.583984	63.396969
3700.383789	-39.323036
3699.182617	-71.207756
3697.982422	-71.853905
3696.781250	77.376419
3695.580078	-69.006493
3694.378906	-36.379509
3693.177734	112.741364
3691.975586	-46.068565
3690.773438	-1.006018
3689.571289	-7.951272
3688.369141	80.734436
3687.166016	100.785110
3685.962891	-53.750366
3684.759766	36.952816
3683.556641	59.059788
3682.352539	137.232758
3681.149414	88.693962
3679.945313	114.913231
3678.740234	109.977081
3677.536133	96.736191
3676.331055	114.621307
3675.126953	-12.737085
3673.920898	88.124428
3672.715820	79.023872
3671.510742	264.839722
3670.304688	33.864548
3669.098633	122.185844
3667.891602	21.876429
3666.685547	172.318787
3665.478516	57.526608
3664.271484	228.608902
3663.064453	101.414886
3661.857422	268.275696
3660.649414	201.145004
3659.441406	78.152802
3658.233398	160.067749
3657.025391	150.913879
3655.816406	174.855255
3654.607422	107.784119
3653.398438	197.886612
3652.189453	294.154510
3650.980469	206.417480
3649.770508	60.842545
3648.560547	78.552910
3647.350586	129.306961
3646.139648	184.168671
3644.929688	276.179779
3643.718750	238.075577
3642.507813	199.982697
3641.295898	176.347412
3640.084961	305.422913
3638.873047	205.434250
3637.661133	173.551941
3636.449219	310.795654
3635.236328	322.201965
3634.023438	164.548401
3632.810547	155.360458
3631.597656	199.756363
3630.384766	147.291382
3629.170898	344.112976
3627.957031	211.307236
3626.743164	268.006073
3625.529297	262.914215
3624.314453	243.410965
3623.099609	306.240204
3621.884766	255.866852
3620.669922	281.634735
3619.454102	183.969589
3618.239258	252.927383
3617.023438	245.776047
3615.806641	265.350647
3614.590820	360.970764
3613.374023	320.917572
3612.157227	287.042267
3610.940430	343.569092
3609.723633	246.029327
3608.505859	304.592896
3607.288086	385.718994
3606.070313	335.436462
3604.852539	246.177490
3603.633789	282.122284
3602.415039	248.298294
3601.196289	321.150482
3599.977539	289.382477
3598.758789	308.887970
3597.539063	256.631714
3596.319336	261.786774
3595.099609	264.890808
3593.878906	337.655701
3592.659180	291.579773
3591.438477	296.724396
3590.217773	342.822693
3588.996094	313.148987
3587.775391	275.301270
3586.553711	321.377991
3585.332031	389.946716
3584.109375	350.059204
3582.887695	424.735199
3581.665039	339.865204
3580.442383	240.715530
3579.219727	417.587982
3577.996094	492.196381
3576.773438	450.297333
3575.549805	318.513306
3574.325195	221.506454
3573.101563	332.864380
3571.876953	350.247192
3570.652344	379.875244
3569.427734	376.833496
3568.203125	437.061523
3566.977539	427.890839
3565.752930	498.290833
3564.526367	474.835693
3563.300781	365.740417
3562.075195	411.649048
3560.848633	469.772583
3559.622070	523.800049
3558.395508	319.006927
3557.167969	458.616852
3555.940430	522.806213
3554.712891	452.553497
3553.485352	469.890076
3552.257813	375.247620
3551.029297	441.447968
3549.800781	440.466248
3548.572266	516.808411
3547.343750	440.546234
3546.114258	409.062164
3544.884766	611.457275
3543.655273	439.665192
3542.425781	603.360291
3541.195313	456.028046
3539.965820	516.028320
3538.734375	368.772247
3537.503906	418.613922
3536.273438	519.213562
3535.041992	331.437866
3533.810547	529.469055
3532.579102	424.990265
3531.346680	468.699341
3530.115234	577.325195
3528.882813	485.076508
3527.650391	425.317993
3526.416992	412.225525
3525.184570	591.755127
3523.951172	582.697449
3522.717773	454.069092
3521.483398	661.866211
3520.250000	638.629272
3519.015625	597.172974
3517.781250	533.458557
3516.545898	536.589783
3515.311523	608.556702
3514.076172	591.439636
3512.840820	732.180359
3511.605469	583.539246
3510.369141	663.547119
3509.133789	561.501221
3507.897461	659.690857
3506.660156	648.669739
3505.423828	526.480652
3504.186523	636.758667
3502.949219	639.904968
3501.711914	721.844055
3500.474609	591.669067
3499.236328	784.666870
3497.998047	577.809021
3496.759766	716.239075
3495.521484	687.096741
3494.282227	742.723999
3493.042969	699.471802
3491.803711	625.982239
3490.564453	604.962402
3489.324219	674.694641
3488.084961	847.226624
3486.844727	882.628845
3485.603516	756.795044
3484.363281	784.150574
3483.122070	777.251038
3481.880859	893.224243
3480.639648	908.468079
3479.397461	788.809509
3478.156250	695.372070
3476.914063	706.631836
3475.671875	838.629211
3474.428711	833.770569
3473.186523	766.562317
3471.943359	990.999695
3470.700195	696.578430
3469.456055	727.955078
3468.212891	867.866516
3466.968750	834.900146
3465.724609	890.358459
3464.479492	979.950195
3463.235352	916.868774
3461.990234	980.326111
3460.745117	826.928833
3459.499023	858.270081
3458.253906	911.682312
3457.007813	844.681702
3455.761719	771.693237
3454.515625	847.169617
3453.268555	932.648254
3452.021484	913.835388
3450.775391	973.219543
3449.527344	994.501221
3448.280273	829.414001
3447.032227	882.782227
3445.784180	862.017151
3444.536133	959.430908
3443.287109	958.692627
3442.039063	933.936035
3440.790039	859.150513
3439.541016	904.476440
3438.291016	835.736328
3437.041992	863.055054
3435.791992	954.372742
3434.541992	843.682129
3433.291016	809.014526
3432.041016	794.357300
3430.790039	853.659546
3429.539063	970.894409
3428.287109	834.355408
3427.036133	865.666626
3425.784180	976.855774
3424.532227	844.401917
3423.280273	947.577576
3422.027344	982.853760
3420.774414	950.269653
3419.521484	897.751038
3418.268555	901.113831
3417.014648	910.462402
3415.761719	951.720337
3414.507813	967.047546
3413.252930	846.823425
3411.999023	927.943665
3410.744141	979.147888
3409.489258	966.586426
3408.234375	848.465454
3406.978516	853.473572
3405.723633	858.481750
3404.467773	863.489868
3403.210938	868.498047
3401.955078	873.506165
3400.698242	859.024597
3399.441406	908.208557
3398.184570	961.356750
3396.927734	909.101074
3395.669922	1033.809082
3394.412109	850.378418
3393.154297	1024.744507
3391.896484	952.665100
3390.637695	906.442505
3389.378906	846.338867
3388.120117	887.540710
3386.861328	958.513916
3385.601563	900.433167
3384.341797	810.624207
3383.082031	931.193909
3381.822266	900.941040
3380.561523	813.180176
3379.300781	961.459045
3378.040039	929.248901
3376.779297	944.634521
3375.517578	793.523376
3374.256836	941.712524
3372.995117	786.705566
3371.732422	843.723694
3370.470703	902.706604
3369.208008	856.719482
3367.945313	939.443787
3366.682617	1073.607056
3365.418945	855.447205
3364.155273	999.477295
3362.891602	726.030212
3361.627930	923.443909
3360.363281	762.844910
3359.099609	835.622131
3357.834961	953.842651
3356.569336	941.575867
3355.304688	875.964539
3354.039063	782.722229
3352.773438	717.174500
3351.507813	886.674866
3350.241211	799.419678
3348.975586	939.236267
3347.708984	944.782227
3346.442383	792.454712
3345.174805	768.438477
3343.907227	955.514648
3342.639648	888.093750
3341.372070	820.702637
3340.104492	952.470703
3338.835938	733.317566
3337.567383	715.276611
3336.298828	935.671570
3335.029297	643.764832
3333.760742	828.642944
3332.491211	792.888733
3331.221680	759.121094
3329.951172	914.353882
3328.681641	738.872375
3327.411133	815.344360
3326.139648	879.985168
3324.869141	773.469604
3323.597656	877.435852
3322.327148	786.699280
3321.054688	810.025208
3319.783203	815.657043
3318.510742	711.236816
3317.238281	762.083130
3315.965820	846.309753
3314.693359	875.512756
3313.419922	845.795959
3312.146484	770.936829
3310.873047	888.481812
3309.599609	856.827271
3308.325195	787.905151
3307.050781	766.097412
3305.776367	928.680969
3304.501953	861.755310
3303.226563	1012.500366
3301.951172	792.681519
3300.675781	843.429016
3299.400391	845.169617
3298.124023	880.219543
3296.847656	721.330383
3295.571289	834.737000
3294.294922	648.509094
3293.017578	742.313965
3291.740234	667.750916
3290.462891	990.493286
3289.185547	825.911499
3287.907227	939.185181
3286.628906	878.343689
3285.350586	737.351379
3284.072266	788.020691
3282.792969	764.391479
3281.513672	840.448181
3280.234375	885.214294
3278.955078	834.236084
3277.674805	759.840088
3276.394531	734.298401
3275.114258	636.523987
3273.833984	776.954895
3272.552734	940.755371
3271.272461	899.596680
3269.990234	799.923157
3268.708984	862.197510
3267.426758	690.411743
3266.145508	750.737854
3264.862305	655.076294
3263.580078	912.258545
3262.296875	859.481018
3261.014648	832.056458
3259.731445	792.954773
3258.447266	952.536316
3257.164063	755.696777
3255.879883	788.675110
3254.595703	848.895752
3253.310547	837.084106
3252.026367	718.257446
3250.741211	844.608398
3249.456055	749.169739
3248.169922	791.845581
3246.884766	929.781189
3245.598633	754.681885
3244.312500	908.123840
3243.025391	680.629395
3241.739258	767.972168
3240.452148	830.029297
3239.165039	800.783386
3237.876953	750.190247
3236.589844	899.582581
3235.301758	790.761414
3234.013672	910.981262
3232.724609	738.172058
3231.436523	751.662659
3230.147461	800.060669
3228.857422	920.190857
3227.568359	898.743225
3226.278320	722.229309
3224.989258	760.909912
3223.698242	886.771667
3222.408203	663.868408
3221.117188	851.685303
3219.826172	828.343567
3218.535156	841.799072
3217.244141	744.907349
3215.952148	642.246338
3214.660156	671.212646
3213.368164	798.839844
3212.076172	671.082520
3210.783203	713.565552
3209.490234	833.378357
3208.197266	792.685364
3206.903320	730.745789
3205.610352	751.929382
3204.316406	664.904419
3203.022461	821.316895
3201.727539	734.311707
3200.432617	836.582275
3199.137695	583.570496
3197.842773	620.200500
3196.547852	575.759521
3195.251953	691.489075
3193.956055	631.617676
3192.660156	876.523743
3191.363281	708.645691
3190.067383	749.065552
3188.770508	764.409180
3187.472656	696.869873
3186.175781	652.480896
3184.877930	565.722656
3183.580078	571.456909
3182.282227	552.151855
3180.983398	711.926147
3179.684570	602.119080
3178.385742	713.702271
3177.086914	605.860291
3175.788086	594.261108
3174.488281	630.756592
3173.188477	540.299988
3171.887695	547.946289
3170.587891	586.350342
3169.287109	651.649292
3167.986328	547.802124
3166.685547	568.887817
3165.383789	584.201233
3164.082031	689.781982
3162.780273	591.763794
3161.478516	593.621704
3160.175781	532.129578
3158.873047	505.206818
3157.570313	551.210876
3156.267578	512.781311
3154.963867	520.400452
3153.660156	505.001923
3152.356445	437.838104
3151.052734	483.804535
3149.748047	489.501160
3148.443359	449.202881
3147.138672	420.414124
3145.833984	529.556152
3144.528320	531.402893
3143.222656	433.676483
3141.916992	515.945740
3140.610352	452.709534
3139.304688	437.340088
3137.998047	496.595551
3136.691406	442.959808
3135.383789	402.730591
3134.076172	389.286896
3132.768555	532.621765
3131.460938	465.632202
3130.153320	312.663849
3128.844727	417.708771
3127.536133	595.308044
3126.227539	358.354218
3124.917969	320.096680
3123.608398	493.786957
3122.298828	472.694489
3120.989258	413.436462
3119.678711	268.328705
3118.369141	283.534363
3117.057617	325.436554
3115.747070	275.778564
3114.436523	159.400635
3113.125000	334.742615
3111.813477	466.176605
3110.500977	397.462738
3109.189453	277.330139
3107.876953	395.356781
3106.564453	195.274109
3105.250977	317.074219
3103.937500	250.345535
3102.625000	282.620819
3101.310547	250.174667
3099.997070	198.711441
3098.682617	122.534142
3097.368164	362.114990
3096.053711	245.995941
3094.739258	291.526093
3093.423828	323.729248
3092.108398	165.863266
3090.792969	249.377350
3089.476563	253.063370
3088.160156	220.656219
3086.843750	136.983047
3085.527344	262.197144
3084.210938	115.897095
3082.893555	343.551514
3081.576172	111.892433
3080.257813	172.495377
3078.940430	140.124695
3077.622070	232.933456
3076.303711	227.102921
3074.984375	228.853592
3073.666016	289.359558
3072.346680	152.752365
3071.027344	181.032104
3069.707031	103.215218
3068.387695	-12.453922
3067.067383	231.700668
3065.747070	68.713272
3064.425781	165.106674
3063.104492	185.759888
3061.783203	151.529327
3060.461914	18.936449
3059.140625	64.183380
3057.818359	128.318787
3056.496094	122.470688
3055.173828	245.163010
3053.850586	173.138229
3052.527344	91.689957
3051.204102	68.834740
3049.880859	68.651176
3048.556641	42.024330
3047.233398	158.902267
3045.909180	30.321243
3044.583984	105.624008
3043.259766	158.250809
3041.934570	84.444939
3040.608398	176.658524
3039.283203	8.572536
3037.957031	63.045498
3036.630859	128.804123
3035.304688	158.721436
3033.978516	66.131401
3032.651367	-150.780167
3031.324219	71.304291
3029.997070	197.246078
3028.668945	3.017612
3027.341797	174.099274
3026.013672	-63.351173
3024.684570	77.556389
3023.356445	113.037186
3022.027344	18.695286
3020.698242	112.470810
3019.368164	82.092514
3018.039063	96.845505
3016.708984	15.719532
3015.378906	24.831997
3014.047852	30.177275
3012.717773	112.542427
3011.386719	74.658905
3010.055664	81.856026
3008.723633	68.391823
3007.392578	45.542645
3006.060547	109.032593
3004.727539	185.628235
3003.395508	23.921379
3002.062500	-12.051891
3000.729492	100.141281
2999.396484	71.658104
2998.062500	-9.310781
2996.728516	121.545898
2995.394531	-118.697655
2994.060547	173.249069
2992.725586	56.711956
2991.390625	-14.836085
2990.055664	1.646431
2988.720703	117.342110
2987.384766	182.449371
2986.048828	60.383533
2984.712891	153.532761
2983.376953	-37.705994
2982.040039	-32.490753
2980.703125	26.946825
2979.366211	-33.299030
2978.028320	-22.495739
2976.690430	83.612366
2975.352539	8.426637
2974.014648	43.486614
2972.675781	56.113735
2971.336914	-76.929977
2969.998047	-26.952637
2968.659180	15.533047
2967.319336	112.120964
2965.979492	-140.275970
2964.639648	-4.527398
2963.299805	-6.866726
2961.958984	-5.481328
2960.618164	105.906471
2959.277344	-58.654018
2957.935547	-8.816495
2956.593750	132.306595
2955.251953	126.183990
2953.910156	-129.550034
2952.567383	-22.024780
2951.225586	-56.060307
2949.881836	8.579058
2948.539063	-6.847749
2947.195313	27.970999
2945.852539	-50.723705
2944.507813	-66.147392
2943.164063	48.620533
2941.819336	8.999188
2940.474609	-166.329391
2939.129883	-42.331535
2937.784180	-9.451012
2936.439453	-86.213379
2935.093750	-122.082855
2933.747070	-42.789425
2932.401367	-100.947990
2931.054688	26.571459
2929.708008	3.679004
2928.360352	-95.302551
2927.013672	-51.373821
2925.666016	-94.662140
2924.318359	-67.456146
2922.969727	-110.736763
2921.621094	-48.322399
2920.272461	69.674629
2918.923828	0.428637
2917.575195	75.739906
2916.225586	-8.313896
2914.875977	-114.567780
2913.525391	-33.740963
2912.175781	-64.045403
2910.825195	-27.700319
2909.474609	-24.690588
2908.123047	-12.436137
2906.772461	-77.897430
2905.420898	41.638916
2904.069336	0.222696
2902.716797	82.703499
2901.364258	65.316689
2900.011719	-9.367925
2898.659180	126.641357
2897.305664	13.161405
2895.953125	-70.722786
2894.599609	-41.919949
2893.245117	-3.902279
2891.891602	-12.058378
2890.537109	1.931502
2889.181641	-78.209999
2887.827148	-31.012083
2886.471680	-31.802494
2885.116211	43.021355
2883.760742	64.333488
2882.405273	52.445419
2881.048828	-9.214691
2879.692383	-52.427059
2878.334961	-77.203476
2876.978516	-31.969099
2875.621094	-38.332474
2874.263672	74.999931
2872.905273	7.847357
2871.547852	-114.508766
2870.189453	9.797091
2868.830078	23.641396
2867.471680	-23.235432
2866.112305	-110.566986
2864.752930	46.719090
2863.393555	43.974361
2862.033203	98.211411
2860.672852	-42.400707
2859.312500	-59.845882
2857.952148	-130.569427
2856.590820	-30.443542
2855.229492	80.656898
2853.868164	76.029747
2852.505859	91.591850
2851.144531	180.560303
2849.782227	-77.343529
2848.418945	-111.317390
2847.056641	47.326027
2845.693359	73.852043
2844.330078	56.353584
2842.965820	40.688881
2841.602539	43.354362
2840.238281	124.813072
2838.874023	23.011463
2837.508789	106.261368
2836.143555	24.636700
2834.778320	32.764896
2833.413086	-12.209512
2832.046875	34.348541
2830.681641	38.791977
2829.314453	114.584564
2827.948242	-3.570464
2826.581055	128.888489
2825.214844	23.565863
2823.846680	157.783279
2822.479492	167.642929
2821.111328	151.906097
2819.743164	48.462189
2818.375000	103.990379
2817.005859	-26.814234
2815.636719	46.955307
2814.267578	91.477722
2812.898438	4.544508
2811.528320	59.995274
2810.158203	-34.209782
2808.788086	117.906891
2807.416992	45.602837
2806.046875	13.442543
2804.675781	43.279987
2803.303711	27.524826
2801.932617	51.868515
2800.560547	-98.739777
2799.188477	85.931671
2797.815430	139.373306
2796.443359	54.380592
2795.070313	124.183456
2793.696289	-9.939798
2792.323242	14.333193
2790.949219	54.967663
2789.575195	71.928268
2788.201172	107.066566
2786.826172	164.008240
2785.451172	15.450354
2784.076172	-25.795063
2782.701172	111.096207
2781.325195	-42.834648
2779.949219	104.894615
2778.573242	25.491529
2777.196289	58.716015
2775.819336	-9.765097
2774.442383	-29.207659
2773.065430	42.108055
2771.687500	-129.790955
2770.309570	-105.671913
2768.931641	-19.889811
2767.553711	27.764835
2766.174805	-58.794762
2764.795898	81.298454
2763.416992	70.881897
2762.037109	-35.589733
2760.657227	-13.378274
2759.277344	-27.412920
2757.897461	-32.392395
2756.516602	47.734180
2755.135742	13.760652
2753.754883	-101.662590
2752.373047	-54.165333
2750.991211	51.209358
2749.609375	-27.990664
2748.227539	-90.887459
2746.844727	59.623047
2745.461914	-62.944572
2744.079102	60.374527
2742.696289	104.116974
2741.312500	-79.843643
2739.928711	57.839790
2738.544922	-30.319544
2737.160156	-93.169250
2735.775391	113.027435
2734.390625	3.227050
2733.005859	-75.853600
2731.620117	103.131721
2730.234375	29.461283
2728.848633	8.123370
2727.461914	12.034520
2726.076172	-41.758942
2724.689453	102.761108
2723.301758	25.525330
2721.915039	-42.674820
2720.527344	17.062555
2719.138672	-72.740089
2717.750977	-59.857197
2716.362305	1.629714
2714.973633	52.284599
2713.584961	138.911652
2712.195313	-78.625839
2710.806641	63.755630
2709.416016	123.326042
2708.026367	31.795391
2706.635742	-36.330975
2705.245117	35.790215
2703.854492	-12.551000
2702.462891	-14.156404
2701.072266	47.119080
2699.680664	-10.197268
2698.288086	56.426765
2696.896484	15.279837
2695.503906	-63.559528
2694.110352	135.842743
2692.717773	71.354919
2691.324219	44.564289
2689.930664	73.388878
2688.537109	-1.830014
2687.142578	80.774742
2685.748047	114.933670
2684.353516	138.318634
2682.958984	-6.772973
2681.563477	36.322311
2680.167969	95.517174
2678.771484	45.425285
2677.375977	238.888138
2675.979492	77.771744
2674.583008	165.526886
2673.185547	29.529924
2671.789063	36.727837
2670.391602	63.593555
2668.993164	-41.916389
2667.595703	9.978008
2666.197266	47.540676
2664.798828	-52.559814
2663.400391	52.902115
2662.000977	92.200752
2660.601563	52.871365
2659.202148	135.010147
2657.801758	163.534439
2656.401367	100.982941
2655.000977	9.888363
2653.600586	77.666237
2652.199219	-6.264176
2650.797852	50.771599
2649.396484	25.728628
2647.995117	89.856911
2646.592773	80.848656
2645.190430	-17.294025
2643.787109	43.217747
2642.384766	66.280319
2640.981445	5.591076
2639.578125	66.043747
2638.173828	108.655228
2636.769531	19.484293
2635.365234	-39.394848
2633.960938	115.322975
2632.555664	-101.940086
2631.150391	180.812256
2629.745117	-38.170002
2628.339844	45.261082
2626.933594	109.092583
2625.527344	25.340336
2624.121094	-37.056705
2622.713867	133.353867
2621.306641	17.645500
2619.899414	-48.286785
2618.492188	6.566767
2617.083984	-75.332672
2615.675781	-34.711918
2614.266602	-61.562935
2612.858398	-54.691380
2611.449219	65.720100
2610.040039	49.488647
2608.629883	-60.741486
2607.220703	31.209421
2605.810547	-24.029293
2604.399414	-139.519180
2602.989258	51.610439
2601.578125	28.270599
2600.166992	3.162258
2598.754883	38.271931
2597.343750	-24.027746
2595.930664	-82.771843
2594.518555	7.185040
2593.106445	15.693679
2591.693359	86.117516
2590.280273	20.295229
2588.866211	-31.360920
2587.452148	-29.955120
2586.038086	-10.877033
2584.624023	-32.467491
2583.208984	-55.825958
2581.794922	28.600462
2580.378906	-44.239548
2578.963867	-4.019308
2577.547852	-69.774178
2576.131836	30.446360
2574.715820	21.181356
2573.298828	114.269310
2571.881836	14.988871
2570.464844	-18.988091
2569.047852	-15.919406
2567.629883	-14.624798
2566.211914	-29.204988
2564.793945	77.840012
2563.375000	-51.321262
2561.956055	73.289589
2560.537109	79.813179
2559.118164	15.874479
2557.698242	-69.179260
2556.278320	9.530263
2554.857422	-77.264954
2553.437500	91.156113
2552.016602	-37.865108
2550.595703	26.670815
2549.173828	61.271732
2547.752930	-25.484373
2546.330078	-3.210628
2544.908203	129.791504
2543.485352	27.230135
2542.063477	105.687653
2540.639648	87.480087
2539.216797	37.658566
2537.792969	-10.396485
2536.369141	48.659603
2534.945313	-48.544773
2533.520508	117.535797
2532.095703	-18.263765
2530.670898	-17.178349
2529.245117	117.200729
2527.819336	62.124405
2526.393555	101.741096
2524.967773	102.769058
2523.541016	86.260979
2522.114258	62.742237
2520.687500	111.054123
2519.260742	75.263023
2517.833008	32.471905
2516.405273	36.963493
2514.976563	-23.326244
2513.547852	101.919113
2512.119141	-37.117840
2510.690430	11.087287
2509.261719	36.526173
2507.832031	19.974121
2506.402344	-66.517075
2504.971680	70.772209
2503.541016	-76.884048
2502.110352	-20.043991
2500.679688	75.200569
2499.248047	41.140537
2497.816406	272.533295
2496.384766	56.845116
2494.953125	68.171684
2493.520508	-23.490541
2492.087891	-74.990616
2490.655273	53.218800
2489.221680	57.522327
2487.788086	32.168587
2486.354492	1.585776
2484.919922	-25.508980
2483.485352	62.429832
2482.050781	-16.960125
2480.616211	-14.443031
2479.180664	52.510715
2477.745117	75.891464
2476.309570	-8.698260
2474.873047	98.225708
2473.437500	64.121201
2472.000000	136.165405
2470.563477	74.210861
2469.125977	167.080429
2467.688477	185.122879
2466.250977	-61.140797
2464.812500	172.481522
2463.374023	119.222450
2461.935547	-50.451256
2460.497070	0.579516
2459.057617	89.792542
2457.618164	107.757339
2456.177734	-46.192852
2454.738281	138.428238
2453.297852	123.365707
2451.857422	-4.494489
2450.416016	204.265335
2448.974609	144.068726
2447.533203	113.369263
2446.091797	28.920832
2444.649414	178.526352
2443.207031	3.950205
2441.764648	21.783192
2440.321289	155.677338
2438.877930	76.448792
2437.434570	21.488161
2435.990234	30.603212
2434.546875	57.018646
2433.101563	178.603607
2431.657227	172.078232
2430.211914	-38.611366
2428.766602	93.268982
2427.321289	5.449230
2425.875977	49.065083
2424.429688	6.213812
2422.983398	283.123749
2421.536133	101.976158
2420.089844	152.406464
2418.642578	24.885120
2417.194336	215.174271
2415.747070	18.603729
2414.298828	55.153667
2412.849609	195.236145
2411.401367	-54.741364
2409.952148	55.956169
2408.502930	95.875481
2407.052734	32.289562
2405.603516	168.735825
2404.152344	8.597249
2402.703125	144.972672
2401.251953	72.766571
2399.800781	55.711220
2398.349609	62.767525
2396.898438	21.588284
2395.445313	-26.477871
2393.994141	78.684662
2392.541016	135.596909
2391.087891	-27.791990
2389.634766	63.506214
2388.181641	204.641388
2386.728516	142.772202
2385.275391	175.486481
2383.820313	-13.594274
2382.365234	106.768715
2380.910156	43.199909
2379.455078	117.092346
2378.000000	161.742371
2376.544922	34.622620
2375.089844	67.229134
2373.632813	29.420128
2372.175781	158.103409
2370.718750	94.527954
2369.261719	151.064346
2367.804688	109.792130
2366.347656	5.069673
2364.888672	92.413300
2363.429688	52.851509
2361.972656	-14.125252
2360.513672	122.830139
2359.054688	6.151964
2357.593750	124.176811
2356.134766	88.013618
2354.673828	-8.081912
2353.214844	-20.262014
2351.753906	36.008747
2350.292969	105.934273
2348.832031	42.370480
2347.369141	81.446815
2345.908203	41.831509
2344.445313	130.453888
2342.984375	-45.942577
2341.521484	-177.847061
2340.058594	100.409760
2338.593750	21.461161
2337.130859	21.112249
2335.667969	60.030491
2334.203125	34.031246
2332.738281	76.314674
2331.273438	16.160526
2329.808594	-18.384853
2328.343750	-6.864956
2326.878906	16.577602
2325.412109	17.822058
2323.945313	-59.381046
2322.478516	-32.577164
2321.011719	33.404087
2319.544922	-11.418296
2318.078125	5.097743
2316.611328	-118.082504
2315.142578	-89.662415
2313.673828	131.136963
2312.205078	21.578293
2310.736328	-99.863853
2309.267578	22.067816
2307.798828	-106.158485
2306.328125	92.236687
2304.859375	20.142088
2303.388672	-80.848236
2301.917969	-101.914185
2300.447266	41.878773
2298.974609	-3.026430
2297.503906	71.004242
2296.031250	-92.818634
2294.560547	38.912979
2293.087891	-75.626045
2291.615234	20.366438
2290.142578	60.297131
2288.667969	71.344696
2287.195313	36.572578
2285.720703	-27.041756
2284.246094	-39.768841
2282.773438	-18.588123
2281.296875	-148.314819
2279.822266	-23.769526
2278.347656	49.875763
2276.871094	-3.592508
2275.396484	-96.006134
2273.919922	-20.746809
2272.443359	-182.574677
2270.966797	126.250481
2269.488281	-1.727679
2268.011719	-73.823196
2266.533203	28.344772
2265.056641	-160.467941
2263.578125	43.113110
2262.099609	-78.031982
2260.619141	-234.648697
2259.140625	-112.345306
2257.662109	-89.801849
2256.181641	78.000793
2254.701172	32.897408
2253.220703	-52.733627
2251.740234	-64.055428
2250.259766	-50.067535
2248.777344	-2.352486
2247.296875	-106.529999
2245.814453	3.566422
2244.332031	-137.715622
2242.849609	-26.001648
2241.367188	-52.602242
2239.884766	-82.579437
2238.400391	76.192604
2236.917969	-43.135582
2235.433594	-4.078880
2233.949219	38.314919
2232.464844	-75.935661
2230.978516	-131.234634
2229.494141	39.043301
2228.009766	10.645521
2226.523438	-54.781765
2225.037109	37.937405
2223.550781	70.052505
2222.064453	-173.647430
2220.576172	38.355331
2219.089844	21.654623
2217.601563	-40.438705
2216.115234	-40.346359
2214.626953	-45.317623
2213.138672	-9.992800
2211.648438	-93.932396
2210.160156	16.905890
2208.669922	-9.966626
2207.181641	43.717045
2205.691406	5.070686
2204.201172	-88.935547
2202.710938	3.250571
2201.218750	115.498573
2199.728516	-228.329147
2198.236328	21.336094
2196.744141	121.730652
2195.251953	108.132332
2193.759766	59.342880
2192.267578	50.752888
2190.775391	-21.482876
2189.281250	-33.442291
2187.787109	-50.436237
2186.294922	1.181028
2184.800781	5.904108
2183.304688	-9.472641
2181.810547	-8.128853
2180.316406	29.984985
2178.820313	134.931488
2177.324219	-77.763168
2175.828125	73.920036
2174.332031	11.661253
2172.835938	-32.214336
2171.337891	17.430012
2169.841797	48.676689
2168.343750	13.107289
2166.845703	71.005928
2165.347656	-24.664999
2163.849609	28.177488
2162.351563	45.949879
2160.851563	108.720428
2159.353516	99.755394
2157.853516	120.776726
2156.353516	-8.236976
2154.853516	69.420319
2153.353516	-67.896904
2151.851563	18.026945
2150.351563	10.642454
2148.849609	33.206493
2147.347656	54.079124
2145.845703	28.321856
2144.343750	22.525988
2142.839844	-84.781479
2141.337891	-50.666313
2139.833984	104.812675
2138.330078	2.487855
2136.826172	21.540846
2135.322266	18.961388
2133.818359	24.673788
2132.314453	-31.105650
2130.808594	52.639179
2129.302734	88.171417
2127.796875	-34.064621
2126.291016	66.176193
2124.785156	-34.466507
2123.279297	-81.986374
2121.771484	38.048592
2120.263672	-89.129105
2118.757813	-30.529078
2117.250000	-3.481707
2115.740234	98.124763
2114.232422	-131.791809
2112.724609	-26.915195
2111.214844	139.189392
2109.705078	137.917206
2108.195313	32.298515
2106.685547	150.220520
2105.175781	39.638802
2103.664063	-72.579330
2102.154297	5.524832
2100.642578	62.063839
2099.130859	151.642059
2097.619141	-71.377716
2096.107422	115.700325
2094.595703	86.141808
2093.082031	30.125935
2091.570313	-55.619759
2090.056641	119.657631
2088.542969	58.658318
2087.029297	62.066391
2085.513672	-25.358000
2084.000000	-31.874895
2082.484375	73.805511
2080.968750	37.525635
2079.455078	-82.881821
2077.937500	106.795494
2076.421875	32.549366
2074.906250	-54.875267
2073.388672	175.832382
2071.873047	60.362286
2070.355469	-81.451118
2068.837891	-55.199848
2067.320313	43.489170
2065.800781	-47.253071
2064.283203	100.746040
2062.763672	9.992601
2061.244141	-37.956848
2059.724609	-54.644283
2058.205078	48.738914
2056.685547	-55.161728
2055.164063	2.094222
2053.644531	-8.085969
2052.123047	22.800596
2050.601563	86.523491
2049.080078	64.767311
2047.558594	54.499847
2046.035156	65.558891
2044.513672	2.716204
2042.990234	62.993977
2041.466797	72.347458
2039.943359	66.911438
2038.419922	56.536533
2036.896484	42.866325
2035.371094	107.893745
2033.847656	-55.024212
2032.322266	203.397079
2030.796875	37.202850
2029.271484	108.659729
2027.744141	198.080872
2026.218750	140.040253
2024.691406	86.908272
2023.164063	28.867928
2021.636719	106.701492
2020.109375	84.650223
2018.582031	110.042274
2017.054688	164.854248
2015.525391	34.788795
2013.996094	225.278076
2012.468750	226.024841
2010.939453	208.762421
2009.408203	155.524963
2007.878906	164.392792
2006.347656	99.714363
2004.818359	0.755606
2003.287109	19.383455
2001.755859	15.128859
2000.224609	71.253586
1998.691406	-84.827995
1997.160156	108.317223
1995.626953	4.457373
1994.093750	81.661583
1992.560547	-56.428501
1991.027344	219.619797
1989.494141	86.412003
1987.960938	116.206947
1986.425781	134.557556
1984.890625	-182.688629
1983.355469	107.665733
1981.820313	3.830643
1980.285156	105.146988
1978.750000	230.819916
1977.212891	-43.907360
1975.675781	-35.443008
1974.138672	163.321426
1972.601563	38.346935
1971.064453	102.022270
1969.527344	-47.307796
1967.988281	24.443642
1966.451172	-25.718311
1964.912109	112.577309
1963.373047	-25.339260
1961.833984	18.673651
1960.292969	132.459686
1958.753906	18.924528
1957.212891	116.400887
1955.671875	122.951508
1954.130859	-11.661819
1952.589844	35.429150
1951.048828	92.216667
1949.505859	108.419289
1947.964844	150.546417
1946.421875	-68.302826
1944.878906	38.616043
1943.335938	-14.907825
1941.792969	-21.455406
1940.248047	-44.218399
1938.705078	-44.312202
1937.160156	-76.805847
1935.615234	47.681969
1934.070313	-78.694366
1932.525391	-44.880077
1930.978516	-129.175339
1929.433594	56.608326
1927.886719	70.918327
1926.339844	-84.516273
1924.792969	23.518475
1923.246094	-51.085732
1921.699219	47.176086
1920.150391	16.165760
1918.601563	-48.756710
1917.052734	152.712479
1915.503906	36.109573
1913.955078	50.253979
1912.406250	-77.604187
1910.855469	-10.248687
1909.306641	90.943924
1907.755859	258.180481
1906.205078	157.724365
1904.654297	112.096237
1903.101563	69.685127
1901.550781	59.510109
1899.998047	145.963425
1898.447266	26.239004
1896.894531	48.231972
1895.339844	-5.468733
1893.787109	29.369953
1892.234375	60.964188
1890.679688	-12.051950
1889.125000	70.972816
1887.570313	-22.946762
1886.015625	106.647446
1884.460938	19.163746
1882.906250	-37.760044
1881.349609	8.154625
1879.792969	57.250507
1878.236328	-20.573849
1876.679688	131.257858
1875.123047	160.996704
1873.566406	22.165285
1872.007813	56.694439
1870.449219	49.479721
1868.890625	37.444103
1867.332031	47.856262
1865.773438	35.803234
1864.214844	81.459953
1862.654297	85.400772
1861.093750	102.150200
1859.533203	85.234734
1857.972656	85.936737
1856.412109	8.149893
1854.851563	72.896790
1853.289063	116.782974
1851.728516	-45.823158
1850.166016	140.472946
1848.603516	120.291595
1847.039063	-63.061501
1845.476563	-24.039175
1843.914063	62.926018
1842.349609	-43.597519
1840.785156	17.734188
1839.220703	37.484753
1837.656250	54.023453
1836.091797	-6.125150
1834.525391	32.745014
1832.958984	-9.839431
1831.392578	84.869705
1829.826172	13.547376
1828.259766	-68.923462
1826.693359	44.859676
1825.125000	102.751282
1823.558594	107.996925
1821.990234	-65.344963
1820.421875	222.051117
1818.853516	106.114998
1817.285156	200.545090
1815.714844	81.450722
1814.144531	-42.380661
1812.576172	195.316910
1811.005859	76.276611
1809.433594	89.381416
1807.863281	-23.235331
1806.292969	212.636292
1804.720703	-9.744944
1803.148438	165.567581
1801.576172	143.629715
1800.003906	161.439636
1798.431641	112.480934
1796.857422	130.268204
1795.285156	35.250259
1793.710938	-66.098534
1792.136719	154.982941
1790.562500	150.499741
1788.986328	-65.133156
1787.412109	-39.421993
1785.835938	37.042175
1784.259766	115.057564
1782.683594	43.936855
1781.107422	-31.916466
1779.531250	19.101292
1777.955078	-32.943295
1776.376953	-175.318802
1774.798828	129.205627
1773.220703	1.107685
1771.642578	-38.240368
1770.064453	-104.495583
1768.484375	-6.078858
1766.906250	0.496675
1765.326172	-105.306274
1763.746094	18.360319
1762.166016	32.821827
1760.583984	63.081196
1759.003906	-64.790741
1757.421875	-102.507011
1755.841797	-54.842514
1754.259766	49.681152
1752.675781	108.331757
1751.093750	32.698654
1749.511719	-4.999372
1747.927734	45.731884
1746.343750	-135.623856
1744.759766	-97.511703
1743.175781	44.735512
1741.591797	149.059387
1740.005859	-10.090744
1738.421875	-167.585602
1736.835938	-99.553101
1735.250000	-64.650177
1733.664063	116.814774
1732.076172	61.834072
1730.490234	-45.099773
1728.902344	0.786771
1727.316406	144.304535
1725.728516	171.246613
1724.138672	45.479446
1722.550781	33.092136
1720.962891	58.477436
1719.373047	190.819168
1717.783203	-11.901030
1716.193359	115.692055
1714.603516	75.014633
1713.013672	-110.252419
1711.421875	146.150940
1709.830078	-43.768311
1708.240234	108.859093
1706.648438	102.792328
1705.054688	92.012100
1703.462891	183.297699
1701.871094	86.201172
1700.277344	-65.781975
1698.683594	69.417671
1697.089844	66.531761
1695.496094	151.477493
1693.902344	164.269730
1692.306641	-11.062753
1690.710938	48.782776
1689.117188	-44.943729
1687.521484	80.698883
1685.923828	71.582947
1684.328125	222.223724
1682.730469	76.884743
1681.134766	139.819473
1679.537109	219.941895
1677.939453	259.359314
1676.341797	87.576859
1674.742188	66.015038
1673.144531	111.724075
1671.544922	151.161072
1669.945313	38.972317
1668.345703	36.234219
1666.746094	-19.613562
1665.144531	130.762726
1663.544922	96.806625
1661.943359	172.168823
1660.341797	107.009186
1658.740234	-6.498242
1657.138672	-62.205776
1655.535156	-63.282471
1653.933594	77.613411
1652.330078	67.177727
1650.726563	52.082916
1649.123047	49.479591
1647.519531	57.800602
1645.914063	42.749092
1644.310547	97.835480
1642.705078	-37.123985
1641.099609	111.412148
1639.494141	-34.363518
1637.888672	149.943787
1636.281250	-17.544697
1634.675781	270.964386
1633.068359	53.770985
1631.460938	32.656620
1629.853516	148.409622
1628.244141	58.901352
1626.636719	36.296028
1625.027344	40.126244
1623.417969	-1.086341
1621.808594	2.786432
1620.199219	76.563156
1618.589844	29.212803
1616.978516	137.135269
1615.369141	151.914307
1613.757813	-87.796982
1612.146484	-0.028893
1610.535156	149.768616
1608.921875	153.735794
1607.310547	-127.561440
1605.697266	16.019537
1604.083984	147.162170
1602.470703	79.931145
1600.857422	293.156769
1599.242188	-82.273438
1597.628906	236.243179
1596.013672	105.647453
1594.398438	21.566998
1592.783203	65.994225
1591.167969	82.574883
1589.550781	-35.422470
1587.935547	194.655228
1586.318359	192.703293
1584.701172	-16.387167
1583.083984	140.958282
1581.466797	30.916622
1579.847656	84.709763
1578.230469	110.709106
1576.611328	183.045731
1574.992188	65.456230
1573.373047	116.210358
1571.751953	183.938385
1570.132813	94.276024
1568.511719	271.570526
1566.890625	206.650116
1565.269531	195.759125
1563.648438	50.762081
1562.027344	103.164085
1560.404297	-3.178739
1558.783203	19.991831
1557.160156	83.226707
1555.537109	166.485657
1553.912109	174.275360
1552.289063	20.444550
1550.664063	43.712406
1549.041016	56.235130
1547.416016	79.544571
1545.791016	-12.497387
1544.164063	-4.510798
1542.539063	121.910217
1540.912109	48.448223
1539.287109	76.498184
1537.660156	64.606094
1536.033203	108.060371
1534.404297	71.644516
1532.777344	-98.323975
1531.148438	25.065493
1529.519531	-12.748460
1527.890625	-4.469704
1526.261719	95.904922
1524.632813	45.925442
1523.001953	-114.440727
1521.373047	110.207283
1519.742188	181.471100
1518.111328	61.132778
1516.478516	26.694107
1514.847656	44.407146
1513.214844	131.076035
1511.583984	-157.484848
1509.951172	7.354025
1508.318359	-124.840408
1506.683594	-4.400080
1505.050781	28.807379
1503.416016	78.859116
1501.783203	-91.335335
1500.148438	-50.381252
1498.511719	-15.529251
1496.876953	172.222687
1495.242188	-106.221855
1493.605469	-118.635826
1491.968750	66.071648
1490.332031	23.154694
1488.695313	74.974861
1487.058594	158.875137
1485.419922	35.174595
1483.781250	-56.384754
1482.142578	-82.256798
1480.503906	87.186600
1478.865234	131.534531
1477.226563	50.866302
1475.585938	168.456375
1473.945313	4.057191
1472.304688	100.356453
1470.664063	47.344608
1469.023438	62.944721
1467.380859	125.785027
1465.740234	-29.088518
1464.097656	38.397793
1462.455078	169.822189
1460.812500	193.194656
1459.167969	163.348755
1457.525391	33.174637
1455.880859	35.396938
1454.236328	51.345570
1452.591797	-19.313259
1450.947266	168.463623
1449.302734	73.587555
1447.656250	138.300705
1446.009766	117.978592
1444.363281	53.673183
1442.716797	180.731339
1441.070313	74.032173
1439.421875	85.786888
1437.775391	12.623513
1436.126953	118.526817
1434.478516	139.503769
1432.830078	86.222511
1431.179688	-91.301750
1429.531250	-21.651518
1427.880859	155.599945
1426.230469	67.700531
1424.580078	31.385761
1422.929688	10.277892
1421.279297	-28.941252
1419.626953	-137.729691
1417.974609	-89.029320
1416.322266	130.679581
1414.669922	93.173569
1413.017578	87.495766
1411.363281	-90.518570
1409.710938	38.495811
1408.056641	-50.153996
1406.402344	32.049652
1404.748047	29.659660
1403.091797	9.191268
1401.437500	-153.175476
1399.781250	-88.937538
1398.125000	-21.656702
1396.468750	-72.075966
1394.812500	-77.152199
1393.154297	65.670258
1391.498047	-8.711550
1389.839844	-156.906128
1388.181641	68.924721
1386.523438	9.818292
1384.865234	26.143864
1383.205078	111.823685
1381.544922	0.178139
1379.884766	-4.432275
1378.224609	-139.991776
1376.564453	-81.231674
1374.904297	-66.091255
1373.242188	-159.255325
1371.580078	-119.925385
1369.919922	-62.503403
1368.255859	-105.817085
1366.593750	-109.961288
1364.931641	-112.545494
1363.267578	-97.038277
1361.603516	13.184629
1359.939453	-26.815125
1358.275391	-72.750298
1356.611328	-25.504539
1354.945313	-147.878143
1353.279297	19.560440
1351.613281	15.901168
1349.947266	-38.713253
1348.281250	-79.747543
1346.615234	-89.210373
1344.947266	51.335686
1343.279297	-46.486843
1341.611328	-58.775501
1339.943359	14.415135
1338.275391	-47.205833
1336.605469	2.101118
1334.935547	14.006981
1333.267578	-143.224762
1331.597656	5.048122
1329.925781	126.377708
1328.255859	-117.388077
1326.583984	-88.717911
1324.912109	-48.034985
1323.240234	-107.499352
1321.568359	67.847084
1319.896484	-82.676239
1318.224609	92.711044
1316.550781	-108.434319
1314.876953	-94.325974
1313.203125	58.733421
1311.529297	16.181452
1309.853516	36.409142
1308.179688	-17.938477
1306.503906	-63.248314
1304.828125	-56.259872
1303.152344	-70.095139
1301.474609	-65.967239
1299.798828	-40.906670
1298.121094	-3.867991
1296.443359	-139.664307
1294.765625	-7.134439
1293.087891	-36.977520
1291.410156	33.043812
1289.730469	25.667130
1288.050781	77.907082
1286.371094	61.718792
1284.691406	-45.177948
1283.011719	26.574331
1281.332031	9.107518
1279.650391	77.971138
1277.968750	-19.663383
1276.287109	62.682507
1274.605469	-27.349548
1272.921875	92.241447
1271.240234	121.219322
1269.556641	71.528481
1267.873047	-55.298794
1266.189453	88.207253
1264.505859	-57.738495
1262.820313	53.186665
1261.134766	21.689522
1259.451172	141.579117
1257.765625	28.632877
1256.078125	72.979965
1254.392578	41.761616
1252.705078	77.323105
1251.019531	144.050491
1249.332031	209.335220
1247.642578	55.435352
1245.955078	-49.465664
1244.267578	17.492571
1242.578125	102.255699
1240.888672	22.767874
1239.199219	-55.141804
1237.509766	-36.793644
1235.818359	80.710426
1234.128906	96.194427
1232.437500	167.920410
1230.746094	275.155304
1229.054688	61.728226
1227.363281	183.846161
1225.669922	125.766052
1223.976563	24.947868
1222.283203	102.899406
1220.589844	62.784702
1218.896484	-2.338651
1217.203125	37.399429
1215.507813	136.202591
1213.812500	50.656326
1212.117188	87.610222
1210.421875	108.395287
1208.726563	90.911873
1207.029297	51.401089
1205.332031	-7.182800
1203.636719	27.124910
1201.937500	-48.966576
1200.240234	45.844181
1198.542969	143.623611
1196.843750	-8.783204
1195.144531	68.501343
1193.445313	103.152985
1191.746094	-18.062719
1190.046875	79.960609
1188.345703	133.903351
1186.644531	70.290207
1184.943359	84.663109
1183.242188	22.687012
1181.541016	69.514191
1179.837891	189.829285
1178.136719	19.403467
1176.433594	108.978241
1174.730469	53.268211
1173.027344	43.138527
1171.322266	235.556412
1169.619141	146.312805
1167.914063	156.903824
1166.208984	10.667747
1164.503906	82.983360
1162.796875	136.286987
1161.091797	157.389359
1159.384766	330.914246
1157.677734	125.075508
1155.970703	143.439453
1154.263672	259.953247
1152.554688	222.794800
1150.847656	184.245651
1149.138672	69.701927
1147.429688	244.911224
1145.720703	180.258163
1144.009766	99.620293
1142.300781	207.657272
1140.589844	171.023773
1138.878906	102.321503
1137.167969	346.358917
1135.455078	248.572449
1133.744141	245.804703
1132.031250	301.511780
1130.318359	252.159271
1128.605469	153.271469
1126.892578	252.926346
1125.179688	297.168671
1123.464844	261.246887
1121.750000	314.352814
1120.035156	293.148407
1118.320313	309.911804
1116.605469	444.766907
1114.888672	190.638229
1113.171875	191.587372
1111.455078	434.344635
1109.738281	273.751648
1108.021484	245.756485
1106.302734	302.255707
1104.585938	265.659790
1102.867188	298.978973
1101.148438	327.982269
1099.429688	291.599243
1097.708984	243.672089
1095.990234	309.191650
1094.269531	226.527222
1092.548828	97.466042
1090.828125	295.352661
1089.105469	226.007172
1087.384766	132.059387
1085.662109	171.773743
1083.939453	394.401062
1082.216797	29.323967
1080.492188	208.495636
1078.769531	120.763992
1077.044922	224.554276
1075.320313	235.572037
1073.595703	179.968430
1071.871094	225.890717
1070.146484	218.244904
1068.419922	188.942657
1066.693359	93.091537
1064.966797	91.457932
1063.240234	253.465424
1061.513672	250.466354
1059.785156	123.094330
1058.056641	146.292542
1056.328125	157.967010
1054.599609	78.591133
1052.871094	-7.923219
1051.140625	162.962173
1049.412109	31.781551
1047.681641	108.783516
1045.951172	242.146164
1044.218750	72.230217
1042.488281	207.100677
1040.755859	184.626724
1039.023438	130.464737
1037.291016	152.861542
1035.558594	195.501434
1033.826172	80.957420
1032.091797	123.716583
1030.357422	189.580490
1028.623047	321.777405
1026.888672	161.418396
1025.154297	269.178986
1023.417969	211.297485
1021.681641	163.576187
1019.945313	177.845856
1018.208984	159.051544
1016.472656	190.693970
1014.734375	92.876953
1012.998047	222.456512
1011.259766	274.372101
1009.521484	186.824020
1007.783203	227.326614
1006.042969	69.506493
1004.302734	203.547150
1002.564453	157.963943
1000.824219	240.315125
999.082031	316.950165
997.341797	255.740738
995.599609	124.275627
993.859375	290.012238
992.117188	316.546387
990.373047	49.018631
988.630859	266.464111
986.886719	166.947739
985.144531	296.911743
983.400391	57.049175
981.656250	2.214734
979.910156	185.316986
978.166016	-21.275511
976.419922	38.676586
974.673828	92.922318
972.927734	41.252407
971.181641	39.746624
969.433594	46.590641
967.687500	53.434654
965.939453	60.278671
964.191406	67.122688
962.441406	73.018379
960.693359	253.338089
958.943359	-43.701374
957.195313	115.222519
955.445313	21.281830
953.693359	87.404121
951.943359	23.584488
950.191406	49.790192
948.441406	18.921427
946.689453	62.327457
944.935547	-46.886433
943.183594	-90.411118
941.431641	-62.570606
939.677734	139.261475
937.923828	71.631058
936.169922	18.322996
934.414063	7.838764
932.660156	78.585625
930.904297	72.446777
929.148438	171.723816
927.392578	132.903732
925.636719	50.015514
923.878906	19.869455
922.123047	86.506142
920.365234	-18.945644
918.607422	216.994171
916.849609	120.167061
915.089844	191.171600
913.330078	56.108852
911.572266	61.794575
909.812500	77.474190
908.050781	98.879898
906.291016	123.137589
904.529297	337.672546
902.767578	185.952866
901.005859	267.061157
899.244141	135.355576
897.482422	192.395325
895.718750	182.807693
893.957031	176.079407
892.193359	231.773956
890.427734	145.770996
888.664063	86.743591
886.898438	142.537643
885.134766	196.908112
883.369141	64.389511
881.603516	124.497330
879.835938	102.531967
878.070313	110.309692
876.302734	111.057617
874.535156	-2.737195
872.767578	9.409317
871.000000	18.753681
869.230469	71.960724
867.460938	-48.657402
865.693359	-91.495689
863.921875	21.136431
862.152344	88.538986
860.382813	93.810463
858.611328	17.243763
856.839844	-90.313950
855.068359	-63.739937
853.296875	0.943038
851.523438	-71.179031
849.751953	-64.286819
847.978516	72.358398
846.205078	10.214941
844.431641	-219.583694
842.656250	-166.030487
840.880859	-47.674011
839.107422	-126.535583
837.332031	18.566175
835.554688	-32.036934
833.779297	-151.576752
832.001953	-61.354187
830.226563	34.465233
828.447266	17.772720
826.669922	-166.250259
824.892578	-132.245941
823.113281	-41.990284
821.333984	-40.288914
819.554688	-10.464362
817.775391	-271.414368
815.996094	-32.244675
814.214844	14.490546
812.435547	41.558033
810.654297	-60.474495
808.871094	-82.441238
807.089844	129.896133
805.306641	-22.505898
803.525391	-99.112175
801.742188	-57.878258
799.958984	-65.702721
798.173828	-69.284111
796.390625	-71.459473
794.605469	58.078465
792.820313	106.349037
791.035156	77.606895
789.248047	114.706299
787.462891	-34.353996
785.675781	121.730515
783.888672	69.315041
782.101563	184.783142
780.314453	-8.825372
778.525391	64.718849
776.736328	47.391098
774.947266	28.690176
773.158203	-2.559922
771.369141	62.603477
769.578125	30.011356
767.789063	90.982559
765.998047	59.825764
764.207031	166.868744
762.414063	159.477707
760.623047	43.274120
758.830078	81.969131
757.037109	46.757664
755.244141	121.712753
753.451172	40.539299
751.656250	45.831093
749.863281	131.926346
748.068359	38.325356
746.271484	24.175440
744.476563	-30.349310
742.681641	48.799046
740.884766	34.695816
739.087891	-79.570580
737.291016	155.399124
735.494141	-75.649178
733.695313	-128.579544
731.896484	-102.231827
730.097656	-34.185753
728.298828	-110.677811
726.500000	18.494986
724.701172	-91.288612
722.900391	-42.681217
721.099609	-38.513390
719.298828	-67.650505
717.496094	-155.035202
715.695313	-121.674187
713.892578	3.256877
712.089844	-74.345039
710.287109	-24.334064
708.484375	9.030414
706.679688	99.234032
704.876953	21.721193
703.072266	-75.126053
701.267578	5.372455
699.460938	-94.161385
697.656250	45.859875
695.849609	55.732395
694.042969	28.245216
692.236328	-13.055850
690.429688	36.967785
688.621094	-18.110762
686.812500	-41.354015
685.005859	98.528030
683.195313	33.842804
681.386719	29.977077
679.578125	66.185631
677.767578	65.112419
675.957031	41.954685
674.146484	-37.788113
672.333984	53.686695
670.523438	51.273628
668.710938	93.038536
666.898438	-40.388725
665.085938	23.461046
663.273438	59.716236
661.458984	78.061386
659.644531	41.279682
657.830078	94.085945
656.015625	76.620773
654.201172	46.776737
652.384766	102.345337
650.570313	54.629276
648.753906	63.392250
646.935547	77.681625
645.119141	82.325974
643.300781	-12.040857
641.484375	29.769072
639.666016	59.212856
637.847656	-4.819380
636.027344	-41.311954
634.208984	43.114471
632.388672	13.513712
630.568359	53.978527
628.748047	39.510414
626.925781	-33.955002
625.105469	-70.339165
623.283203	-72.375832
621.460938	-22.270563
619.636719	-2.335762
617.814453	40.894321
615.990234	15.582458
614.167969	21.800346
612.343750	-14.440589
610.517578	49.378277
608.693359	33.713879
606.867188	0.279330
605.041016	-78.314537
603.214844	41.626675
601.388672	147.839859
599.562500	4.984755
597.734375	131.716812
595.906250	28.628788
594.078125	29.519102
592.250000	-100.823586
590.419922	-45.194981
588.591797	43.199211
586.761719	165.738235
584.931641	21.880047
583.099609	-3.077743
581.269531	67.540955
579.437500	116.317085
577.605469	100.941032
575.773438	47.378716
573.941406	135.720566
572.107422	166.772049
570.273438	137.825562
568.439453	212.509628
566.605469	199.944992
564.771484	72.935921
562.935547	64.535477
561.101563	185.527557
559.265625	118.575745
557.427734	61.212891
555.591797	55.593960
553.753906	116.688728
551.917969	145.099411
550.080078	53.825100
548.240234	102.696991
546.402344	169.218124
544.562500	112.039513
542.724609	140.503021
540.884766	148.602966
539.042969	49.411716
537.203125	62.988419
535.361328	106.463142
533.519531	107.848404
531.677734	167.609650
529.835938	117.443771
527.994141	22.543732
526.150391	75.563301
524.306641	86.534973
522.462891	33.794792
520.619141	-62.283611
518.773438	-24.123110
516.927734	-55.064289
515.082031	49.483273
513.236328	11.798479
511.390625	5.287667
509.542969	40.777020
507.697266	-33.376778
505.849609	11.608444
504.000000	-121.964478
502.152344	54.246429
500.302734	-19.747622
498.455078	-84.247765
496.605469	-51.368732
494.753906	-53.605064
492.904297	-16.661785
491.052734	-126.931404
489.203125	-61.596535
487.351563	-20.559427
485.498047	-118.540718
483.646484	-38.339306
481.792969	-51.237762
479.939453	-39.832813
478.085938	-32.462330
476.232422	18.069000
474.376953	3.904840
472.523438	-10.254348
470.667969	2.576516
468.812500	63.916824
466.955078	-4.037009
465.099609	70.776207
463.242188	138.859665
461.384766	27.910902
459.527344	-68.169739
457.667969	145.269714
455.810547	-20.707733
453.951172	106.591110
452.091797	61.751389
450.232422	35.766647
448.371094	167.066208
446.511719	-14.760715
444.650391	45.326782
442.789063	87.943527
440.927734	54.020012
439.064453	91.294144
437.201172	68.169754
435.337891	86.667641
433.474609	-33.008797
431.611328	71.373116
429.748047	115.379539
427.882813	46.781551
426.017578	84.116646
424.152344	-46.061745
422.285156	23.476891
420.419922	-114.642479
418.552734	133.019485
416.685547	47.195969
414.818359	-65.349716
412.949219	-48.000393
411.082031	-42.707886
409.212891	-7.959160
407.343750	-25.376123
405.472656	-32.060402
403.603516	102.954536
401.732422	6.713890
399.861328	-92.148956
397.990234	8.097404
396.119141	-62.658916
394.246094	2.848505
392.375000	-25.140495
390.501953	-91.802521
388.628906	4.376550
386.753906	-46.225647
384.880859	-32.793663
383.005859	54.001163
381.130859	-21.903811
379.253906	8.884571
377.378906	-12.334414
375.501953	34.427406
373.626953	29.195852
371.748047	53.300148
369.871094	-82.411972
367.994141	-25.037291
366.115234	4.375185
364.236328	29.776320
362.357422	-67.234802
360.478516	97.813446
358.597656	24.766886
356.716797	-69.529152
354.835938	-78.726685
352.955078	10.405062
351.074219	78.226212
349.191406	31.785452
347.308594	-14.651066
345.425781	-0.009940
343.542969	1.332003
341.658203	224.301620
339.775391	98.173813
337.890625	70.260605
336.005859	145.783142
334.119141	-12.106416
332.234375	-2.937247
330.347656	-16.315750
328.460938	94.838097
326.574219	54.883919
324.685547	17.578938
322.798828	6.720333
320.910156	-16.069923
319.021484	130.532318
317.132813	79.852295
315.242188	43.720947
313.351563	60.468296
311.460938	110.221184
309.570313	34.296844
307.679688	-36.359619
305.787109	6.632007
303.896484	-52.207829
302.003906	39.526875
300.111328	-39.209785
298.216797	101.225563
296.322266	130.643005
294.429688	-30.090996
292.535156	-78.651520
290.638672	-8.519000
288.744141	50.936657
286.847656	17.996714
284.951172	98.364922
283.054688	71.848946
281.158203	-54.894985
279.259766	30.452765
277.361328	-48.980110
275.462891	44.034698
273.564453	21.045746
271.666016	-53.374802
269.765625	52.436752
267.865234	-55.057217
265.964844	30.747478
264.064453	-11.173957
262.162109	-42.666927
260.261719	-67.715263
258.359375	-29.785265
256.457031	-47.193771
254.552734	-45.015099
252.650391	-87.649979
250.746094	-59.492931
248.841797	34.139446
246.937500	10.760734
245.031250	54.167465
243.126953	39.651783
241.220703	43.348324
239.314453	37.688950
237.406250	69.884880
235.500000	-18.719604
233.591797	-1.314968
231.683594	46.021511
229.775391	36.811657
227.865234	1.220517
225.957031	61.001907
224.046875	0.122963
222.136719	-0.749632
220.226563	9.926458
218.314453	24.299000
216.402344	-19.119488
214.490234	56.223518
212.578125	59.381897
210.666016	-12.216060
208.751953	-44.837025
206.839844	65.980324
204.925781	-63.842274
203.009766	-37.186428
201.095703	-110.060387
