#Wave		#Intensity
4001.644531	398622.281250
4000.500000	398408.250000
3999.354492	398263.125000
3998.209961	398113.687500
3997.064453	398363.687500
3995.918945	398094.218750
3994.772461	398093.187500
3993.626953	397786.750000
3992.480469	398154.343750
3991.333984	397732.375000
3990.187500	397480.625000
3989.040039	397455.656250
3987.893555	397500.406250
3986.746094	372780.406250
3985.598633	355448.500000
3984.451172	355646.812500
3983.302734	354875.906250
3982.154297	355037.218750
3981.006836	342645.687500
3979.857422	317897.562500
3978.708984	317338.656250
3977.560547	316812.593750
3976.411133	316591.250000
3975.261719	316741.937500
3974.112305	317003.437500
3972.961914	316716.906250
3971.811523	317021.781250
3970.662109	315718.156250
3969.511719	315342.906250
3968.360352	315782.531250
3967.209961	315707.125000
3966.058594	315227.781250
3964.907227	314379.468750
3963.755859	315209.656250
3962.604492	314422.406250
3961.452148	314588.156250
3960.299805	314313.375000
3959.147461	314952.000000
3957.995117	314004.781250
3956.841797	311670.000000
3955.689453	292065.906250
3954.536133	288868.812500
3953.382813	288119.968750
3952.228516	288981.468750
3951.075195	288009.687500
3949.920898	288511.281250
3948.766602	288475.562500
3947.612305	288589.250000
3946.458008	288583.812500
3945.302734	286799.000000
3944.147461	287267.843750
3942.992188	286723.781250
3941.836914	287491.000000
3940.680664	286696.187500
3939.525391	286433.656250
3938.369141	286123.656250
3937.211914	286029.937500
3936.055664	285674.687500
3934.898438	286404.437500
3933.742188	285727.281250
3932.584961	285262.093750
3931.426758	284743.031250
3930.269531	285042.625000
3929.111328	285249.250000
3927.953125	284417.437500
3926.794922	284649.968750
3925.636719	284381.781250
3924.477539	284366.093750
3923.319336	284072.156250
3922.160156	284345.500000
3921.000000	284178.843750
3919.840820	282824.343750
3918.680664	282405.812500
3917.520508	283435.656250
3916.360352	282398.750000
3915.200195	282155.000000
3914.040039	282454.093750
3912.878906	281585.875000
3911.717773	282627.781250
3910.556641	282254.937500
3909.394531	280595.125000
3908.233398	282232.718750
3907.071289	280709.031250
3905.909180	280364.750000
3904.746094	279691.500000
3903.583984	280422.687500
3902.420898	278928.343750
3901.257813	279861.437500
3900.094727	279279.000000
3898.931641	279588.500000
3897.767578	278462.750000
3896.603516	277867.968750
3895.439453	278433.093750
3894.275391	278710.250000
3893.111328	278137.187500
3891.946289	277740.312500
3890.781250	278225.593750
3889.616211	277586.375000
3888.451172	277981.375000
3887.285156	277078.593750
3886.119141	277713.687500
3884.953125	277002.093750
3883.787109	276462.218750
3882.620117	276456.218750
3881.454102	276640.906250
3880.287109	275775.718750
3879.120117	275532.062500
3877.952148	275890.250000
3876.785156	275066.312500
3875.617188	275186.812500
3874.449219	274545.250000
3873.281250	275590.281250
3872.112305	274752.000000
3870.944336	273563.156250
3869.775391	273771.468750
3868.606445	274116.531250
3867.436523	273238.468750
3866.267578	272632.187500
3865.097656	273520.125000
3863.927734	272766.531250
3862.757813	272976.812500
3861.587891	272855.906250
3860.416992	272705.093750
3859.246094	272784.968750
3858.075195	272320.406250
3856.904297	270955.187500
3855.732422	270614.875000
3854.560547	270485.906250
3853.388672	271575.156250
3852.216797	270426.468750
3851.044922	271773.312500
3849.872070	270776.406250
3848.699219	270391.656250
3847.526367	270414.125000
3846.353516	269839.906250
3845.179688	270245.968750
3844.005859	268949.843750
3842.832031	269468.750000
3841.658203	268526.687500
3840.484375	268945.437500
3839.309570	268235.812500
3838.134766	268635.250000
3836.959961	268789.843750
3835.785156	269244.312500
3834.609375	268801.000000
3833.434570	267345.531250
3832.258789	267019.656250
3831.082031	267792.968750
3829.906250	267862.437500
3828.729492	266359.312500
3827.552734	266779.593750
3826.375977	266279.843750
3825.199219	266863.500000
3824.021484	266281.093750
3822.844727	266144.750000
3821.666992	265685.781250
3820.489258	264704.906250
3819.310547	264923.250000
3818.131836	265050.281250
3816.954102	265550.593750
3815.774414	264587.375000
3814.595703	264894.593750
3813.416992	264752.250000
3812.237305	264243.281250
3811.057617	264641.468750
3809.877930	264346.656250
3808.697266	264482.000000
3807.516602	263823.000000
3806.336914	263839.781250
3805.155273	263195.937500
3803.974609	263255.156250
3802.792969	262757.656250
3801.612305	262455.062500
3800.430664	262931.093750
3799.248047	262459.312500
3798.066406	262761.718750
3796.883789	261951.812500
3795.701172	261915.937500
3794.518555	262080.859375
3793.335938	261918.156250
3792.152344	261182.890625
3790.968750	261058.406250
3789.785156	260834.687500
3788.601563	261715.484375
3787.417969	261251.015625
3786.233398	260953.468750
3785.048828	261236.421875
3783.864258	261050.812500
3782.678711	260314.593750
3781.494141	260730.359375
3780.308594	260255.968750
3779.123047	258719.000000
3777.937500	259375.140625
3776.750977	259889.796875
3775.564453	260216.703125
3774.377930	260138.906250
3773.191406	258479.031250
3772.004883	259107.171875
3770.817383	258189.343750
3769.629883	259025.718750
3768.442383	259386.031250
3767.254883	258651.734375
3766.066406	258315.421875
3764.878906	258646.156250
3763.690430	257815.625000
3762.500977	258621.625000
3761.312500	257398.156250
3760.123047	258166.062500
3758.933594	257928.937500
3757.744141	257740.218750
3756.554688	257318.328125
3755.364258	256982.718750
3754.173828	256808.953125
3752.983398	257088.843750
3751.792969	256892.000000
3750.602539	257012.203125
3749.411133	256198.359375
3748.219727	256908.296875
3747.028320	256967.546875
3745.835938	256477.171875
3744.644531	256154.750000
3743.452148	256195.203125
3742.259766	256436.906250
3741.067383	256950.984375
3739.874023	257412.484375
3738.680664	256790.484375
3737.487305	255257.421875
3736.293945	255605.828125
3735.100586	255908.015625
3733.906250	256507.406250
3732.711914	255919.593750
3731.517578	255750.593750
3730.323242	255876.718750
3729.127930	256013.234375
3727.932617	255800.343750
3726.737305	256309.078125
3725.541992	256238.390625
3724.345703	255730.765625
3723.150391	256205.750000
3721.954102	255441.234375
3720.757813	256033.078125
3719.560547	256394.890625
3718.364258	256677.187500
3717.166992	256783.937500
3715.969727	256466.796875
3714.771484	257185.187500
3713.574219	257320.968750
3712.375977	256899.531250
3711.177734	256722.328125
3709.979492	257346.218750
3708.780273	257825.953125
3707.582031	258561.984375
3706.382813	257846.671875
3705.183594	258549.046875
3703.983398	259438.718750
3702.784180	259315.375000
3701.583984	259450.390625
3700.383789	260116.500000
3699.182617	260363.750000
3697.982422	260427.671875
3696.781250	259887.843750
3695.580078	260538.750000
3694.378906	261990.562500
3693.177734	263212.968750
3691.975586	262261.093750
3690.773438	262788.312500
3689.571289	262988.843750
3688.369141	264002.218750
3687.166016	264584.875000
3685.962891	265948.750000
3684.759766	265724.625000
3683.556641	266549.687500
3682.352539	266709.781250
3681.149414	267766.906250
3679.945313	269313.656250
3678.740234	270288.906250
3677.536133	270709.656250
3676.331055	270644.625000
3675.126953	272258.093750
3673.920898	272730.031250
3672.715820	273533.625000
3671.510742	274803.468750
3670.304688	274760.468750
3669.098633	275863.781250
3667.891602	276697.218750
3666.685547	277453.656250
3665.478516	279274.656250
3664.271484	279330.250000
3663.064453	280023.625000
3661.857422	281037.656250
3660.649414	282612.281250
3659.441406	282677.500000
3658.233398	283406.937500
3657.025391	283836.062500
3655.816406	284732.531250
3654.607422	285818.937500
3653.398438	287091.000000
3652.189453	288418.406250
3650.980469	289726.718750
3649.770508	289877.187500
3648.560547	291004.906250
3647.350586	291076.562500
3646.139648	291183.281250
3644.929688	292479.468750
3643.718750	294245.875000
3642.507813	294735.875000
3641.295898	294204.000000
3640.084961	294999.218750
3638.873047	295433.031250
3637.661133	295532.531250
3636.449219	295539.156250
3635.236328	297104.625000
3634.023438	298073.718750
3632.810547	299547.406250
3631.597656	299928.312500
3630.384766	299884.593750
3629.170898	300872.968750
3627.957031	301922.750000
3626.743164	301932.187500
3625.529297	302087.781250
3624.314453	302681.750000
3623.099609	304129.656250
3621.884766	303998.687500
3620.669922	304805.906250
3619.454102	306186.718750
3618.239258	306178.781250
3617.023438	306746.593750
3615.806641	307562.906250
3614.590820	307719.125000
3613.374023	309379.562500
3612.157227	309919.562500
3610.940430	310229.281250
3609.723633	310649.750000
3608.505859	311166.593750
3607.288086	311989.156250
3606.070313	312723.093750
3604.852539	313107.843750
3603.633789	314013.656250
3602.415039	313813.281250
3601.196289	316213.937500
3599.977539	315812.218750
3598.758789	316351.812500
3597.539063	316800.968750
3596.319336	318239.937500
3595.099609	318452.875000
3593.878906	318919.781250
3592.659180	318565.031250
3591.438477	320764.468750
3590.217773	320702.312500
3588.996094	320900.187500
3587.775391	321370.218750
3586.553711	322460.187500
3585.332031	322479.531250
3584.109375	323677.281250
3582.887695	323700.468750
3581.665039	325643.968750
3580.442383	326004.125000
3579.219727	326636.031250
3577.996094	327367.843750
3576.773438	328076.875000
3575.549805	328773.343750
3574.325195	329081.437500
3573.101563	330686.312500
3571.876953	331132.750000
3570.652344	330825.625000
3569.427734	332435.375000
3568.203125	332644.437500
3566.977539	333753.250000
3565.752930	333068.406250
3564.526367	334841.656250
3563.300781	335315.156250
3562.075195	336579.593750
3560.848633	336229.000000
3559.622070	335656.343750
3558.395508	337871.593750
3557.167969	338081.187500
3555.940430	338887.531250
3554.712891	340308.656250
3553.485352	340332.312500
3552.257813	341815.687500
3551.029297	341883.812500
3549.800781	342556.312500
3548.572266	343383.218750
3547.343750	344040.937500
3546.114258	344604.812500
3544.884766	344637.687500
3543.655273	345713.593750
3542.425781	346077.562500
3541.195313	347026.750000
3539.965820	347800.781250
3538.734375	348562.343750
3537.503906	349132.625000
3536.273438	348961.406250
3535.041992	350564.937500
3533.810547	350756.875000
3532.579102	351399.343750
3531.346680	352567.187500
3530.115234	352726.125000
3528.882813	353158.843750
3527.650391	353469.718750
3526.416992	354155.593750
3525.184570	354427.593750
3523.951172	355190.031250
3522.717773	356045.406250
3521.483398	356839.625000
3520.250000	357313.468750
3519.015625	357708.093750
3517.781250	358669.593750
3516.545898	359144.781250
3515.311523	359297.875000
3514.076172	359685.687500
3512.840820	360032.875000
3511.605469	360385.968750
3510.369141	361018.093750
3509.133789	361577.125000
3507.897461	361832.625000
3506.660156	362280.062500
3505.423828	362686.906250
3504.186523	362644.906250
3502.949219	363089.875000
3501.711914	363641.750000
3500.474609	364068.156250
3499.236328	364530.718750
3497.998047	364871.968750
3496.759766	364966.750000
3495.521484	365402.625000
3494.282227	365523.500000
3493.042969	365805.687500
3491.803711	366112.000000
3490.564453	366192.281250
3489.324219	366149.500000
3488.084961	366669.218750
3486.844727	366586.000000
3485.603516	367111.468750
3484.363281	367284.062500
3483.122070	367430.406250
3481.880859	367447.781250
3480.639648	367434.906250
3479.397461	367542.812500
3478.156250	367825.812500
3476.914063	367941.656250
3475.671875	368162.031250
3474.428711	367903.500000
3473.186523	368023.218750
3471.943359	368225.343750
3470.700195	368298.656250
3469.456055	368369.937500
3468.212891	368575.812500
3466.968750	368576.625000
3465.724609	368308.187500
3464.479492	368383.343750
3463.235352	368599.062500
3461.990234	368455.218750
3460.745117	368749.093750
3459.499023	368607.250000
3458.253906	368806.625000
3457.007813	368664.781250
3455.761719	369038.593750
3454.515625	369037.125000
3453.268555	369063.750000
3452.021484	368980.031250
3450.775391	368731.968750
3449.527344	368948.968750
3448.280273	369149.843750
3447.032227	369158.281250
3445.784180	369298.906250
3444.536133	368984.843750
3443.287109	369013.250000
3442.039063	368893.531250
3440.790039	369166.125000
3439.541016	368986.312500
3438.291016	369078.687500
3437.041992	369291.062500
3435.791992	368881.250000
3434.541992	369071.531250
3433.291016	369183.750000
3432.041016	369127.968750
3430.790039	368926.312500
3429.539063	368958.500000
3428.287109	369134.500000
3427.036133	369156.625000
3425.784180	368851.156250
3424.532227	369021.062500
3423.280273	369095.031250
3422.027344	368811.656250
3420.774414	368889.625000
3419.521484	368833.812500
3418.268555	368943.625000
3417.014648	369159.062500
3415.761719	369053.343750
3414.507813	368979.562500
3413.252930	368828.031250
3411.999023	368784.187500
3410.744141	368722.375000
3409.489258	368740.281250
3408.234375	368638.656250
3406.978516	368363.781250
3405.723633	368469.281250
3404.467773	368546.875000
3403.210938	368351.718750
3401.955078	368630.250000
3400.698242	368449.062500
3399.441406	368323.625000
3398.184570	368353.343750
3396.927734	367983.343750
3395.669922	368178.093750
3394.412109	368060.687500
3393.154297	368088.375000
3391.896484	368032.562500
3390.637695	367945.000000
3389.378906	367889.218750
3388.120117	367700.375000
3386.861328	367732.000000
3385.601563	367813.187500
3384.341797	367568.875000
3383.082031	367388.093750
3381.822266	367465.312500
3380.561523	367467.093750
3379.300781	367304.250000
3378.040039	367198.968750
3376.779297	367024.281250
3375.517578	367214.375000
3374.256836	367041.718750
3372.995117	367320.875000
3371.732422	366744.125000
3370.470703	366674.593750
3369.208008	366654.562500
3367.945313	366589.031250
3366.682617	366533.375000
3365.418945	366511.343750
3364.155273	366277.625000
3362.891602	366024.156250
3361.627930	366178.250000
3360.363281	366189.875000
3359.099609	365946.406250
3357.834961	365817.687500
3356.569336	365663.312500
3355.304688	365655.187500
3354.039063	365619.375000
3352.773438	365186.562500
3351.507813	365300.906250
3350.241211	365158.531250
3348.975586	364949.062500
3347.708984	364869.906250
3346.442383	364698.031250
3345.174805	364510.437500
3343.907227	364099.937500
3342.639648	363731.031250
3341.372070	363374.062500
3340.104492	363007.343750
3338.835938	362581.625000
3337.567383	361891.968750
3336.298828	361622.250000
3335.029297	360923.125000
3333.760742	360675.343750
3332.491211	360073.125000
3331.221680	359666.062500
3329.951172	359456.000000
3328.681641	358992.093750
3327.411133	358949.468750
3326.139648	358708.125000
3324.869141	358240.625000
3323.597656	358046.656250
3322.327148	357837.031250
3321.054688	357607.812500
3319.783203	357396.343750
3318.510742	357269.468750
3317.238281	357095.437500
3315.965820	356984.312500
3314.693359	356700.406250
3313.419922	356772.000000
3312.146484	356552.968750
3310.873047	356379.156250
3309.599609	356013.062500
3308.325195	355939.468750
3307.050781	355548.062500
3305.776367	355207.781250
3304.501953	354983.312500
3303.226563	354866.750000
3301.951172	354550.281250
3300.675781	354100.593750
3299.400391	353960.718750
3298.124023	353907.062500
3296.847656	353252.062500
3295.571289	352914.562500
3294.294922	352494.906250
3293.017578	352001.031250
3291.740234	351779.375000
3290.462891	351285.781250
3289.185547	350980.187500
3287.907227	350739.250000
3286.628906	350607.906250
3285.350586	350251.750000
3284.072266	350317.968750
3282.792969	349924.812500
3281.513672	349668.593750
3280.234375	349488.656250
3278.955078	349054.781250
3277.674805	349168.000000
3276.394531	348818.281250
3275.114258	348638.593750
3273.833984	348253.937500
3272.552734	347972.875000
3271.272461	347602.156250
3269.990234	347137.875000
3268.708984	347099.031250
3267.426758	346880.750000
3266.145508	346728.812500
3264.862305	346575.000000
3263.580078	346567.406250
3262.296875	346468.187500
3261.014648	345542.843750
3259.731445	345605.531250
3258.447266	345235.781250
3257.164063	345136.843750
3255.879883	344827.656250
3254.595703	344175.937500
3253.310547	343831.968750
3252.026367	343674.937500
3250.741211	343307.812500
3249.456055	343061.437500
3248.169922	342649.812500
3246.884766	341849.437500
3245.598633	341900.843750
3244.312500	341649.031250
3243.025391	341280.656250
3241.739258	340863.875000
3240.452148	340602.593750
3239.165039	340098.656250
3237.876953	340088.093750
3236.589844	339157.312500
3235.301758	339170.187500
3234.013672	338437.843750
3232.724609	338379.031250
3231.436523	337936.125000
3230.147461	337293.593750
3228.857422	336664.875000
3227.568359	335929.750000
3226.278320	335200.687500
3224.989258	335330.468750
3223.698242	334295.593750
3222.408203	333660.218750
3221.117188	333032.812500
3219.826172	331830.468750
3218.535156	332231.750000
3217.244141	330983.500000
3215.952148	330403.468750
3214.660156	329885.562500
3213.368164	329302.062500
3212.076172	328844.500000
3210.783203	328006.093750
3209.490234	326862.500000
3208.197266	326156.218750
3206.903320	325137.062500
3205.610352	324848.781250
3204.316406	323712.375000
3203.022461	322680.718750
3201.727539	322452.906250
3200.432617	322352.593750
3199.137695	319786.843750
3197.842773	320565.375000
3196.547852	318570.250000
3195.251953	318806.437500
3193.956055	317898.500000
3192.660156	315478.718750
3191.363281	315422.218750
3190.067383	315205.656250
3188.770508	313959.781250
3187.472656	312282.656250
3186.175781	311883.718750
3184.877930	311735.375000
3183.580078	310030.687500
3182.282227	309740.218750
3180.983398	307930.625000
3179.684570	306422.031250
3178.385742	304527.125000
3177.086914	303027.437500
3175.788086	298007.312500
3174.488281	295666.843750
3173.188477	293638.843750
3171.887695	291713.500000
3170.587891	290146.500000
3169.287109	288929.906250
3167.986328	286933.500000
3166.685547	285552.718750
3165.383789	285017.718750
3164.082031	282164.593750
3162.780273	281509.468750
3161.478516	279239.843750
3160.175781	278326.343750
3158.873047	277211.625000
3157.570313	275166.687500
3156.267578	273895.687500
3154.963867	272160.968750
3153.660156	271207.406250
3152.356445	269993.468750
3151.052734	267999.718750
3149.748047	265949.250000
3148.443359	265032.062500
3147.138672	263716.718750
3145.833984	262411.437500
3144.528320	260723.593750
3143.222656	259913.375000
3141.916992	258372.140625
3140.610352	256710.890625
3139.304688	255433.015625
3137.998047	254159.437500
3136.691406	253263.203125
3135.383789	251506.625000
3134.076172	250100.640625
3132.768555	248677.984375
3131.460938	247752.843750
3130.153320	246134.312500
3128.844727	243931.671875
3127.536133	243525.671875
3126.227539	242732.078125
3124.917969	241511.000000
3123.608398	239729.046875
3122.298828	238822.062500
3120.989258	237451.625000
3119.678711	235677.156250
3118.369141	233869.015625
3117.057617	233364.390625
3115.747070	232125.687500
3114.436523	230797.843750
3113.125000	230501.843750
3111.813477	228740.218750
3110.500977	227238.421875
3109.189453	226655.546875
3107.876953	225299.484375
3106.564453	224825.750000
3105.250977	222594.609375
3103.937500	222589.890625
3102.625000	221292.718750
3101.310547	220205.359375
3099.997070	219032.796875
3098.682617	218205.000000
3097.368164	216858.265625
3096.053711	216152.875000
3094.739258	214911.609375
3093.423828	214117.500000
3092.108398	213076.640625
3090.792969	212448.484375
3089.476563	211419.718750
3088.160156	210195.687500
3086.843750	209160.125000
3085.527344	208985.062500
3084.210938	208014.656250
3082.893555	206496.093750
3081.576172	207093.937500
3080.257813	205716.515625
3078.940430	204939.031250
3077.622070	203682.015625
3076.303711	203976.515625
3074.984375	202431.984375
3073.666016	202230.000000
3072.346680	201556.218750
3071.027344	200630.687500
3069.707031	199561.531250
3068.387695	199663.250000
3067.067383	198927.937500
3065.747070	198531.796875
3064.425781	196468.187500
3063.104492	196933.734375
3061.783203	196803.078125
3060.461914	195789.000000
3059.140625	195949.859375
3057.818359	194906.062500
3056.496094	194567.875000
3055.173828	193473.687500
3053.850586	193092.421875
3052.527344	192569.578125
3051.204102	192086.593750
3049.880859	191666.125000
3048.556641	191857.671875
3047.233398	191235.359375
3045.909180	190671.796875
3044.583984	190450.062500
3043.259766	190873.765625
3041.934570	190531.312500
3040.608398	190181.421875
3039.283203	190335.218750
3037.957031	190745.390625
3036.630859	191057.343750
3035.304688	191267.406250
3033.978516	191841.062500
3032.651367	192431.453125
3031.324219	193920.171875
3029.997070	193794.218750
3028.668945	195766.015625
3027.341797	195995.562500
3026.013672	197162.406250
3024.684570	197777.375000
3023.356445	198710.093750
3022.027344	200408.093750
3020.698242	200869.703125
3019.368164	201389.406250
3018.039063	201754.750000
3016.708984	201418.781250
3015.378906	200921.296875
3014.047852	200598.750000
3012.717773	200434.125000
3011.386719	198952.859375
3010.055664	197787.656250
3008.723633	195886.875000
3007.392578	194842.828125
3006.060547	193549.546875
3004.727539	192082.250000
3003.395508	190932.578125
3002.062500	189830.234375
3000.729492	188490.125000
2999.396484	187861.171875
2998.062500	187119.984375
2996.728516	186789.531250
2995.394531	186517.296875
2994.060547	187423.656250
2992.725586	187752.687500
2991.390625	187974.828125
2990.055664	187522.781250
2988.720703	188922.453125
2987.384766	189520.437500
2986.048828	190748.859375
2984.712891	192044.156250
2983.376953	192901.203125
2982.040039	194371.359375
2980.703125	194696.531250
2979.366211	196375.156250
2978.028320	197213.843750
2976.690430	198093.296875
2975.352539	198772.468750
2974.014648	199615.765625
2972.675781	199463.187500
2971.336914	199079.093750
2969.998047	198478.562500
2968.659180	198906.812500
2967.319336	198773.109375
2965.979492	198178.546875
2964.639648	199059.921875
2963.299805	199469.046875
2961.958984	200002.937500
2960.618164	200669.000000
2959.277344	202969.687500
2957.935547	203703.843750
2956.593750	207808.750000
2955.251953	212031.281250
2953.910156	216740.203125
2952.567383	221765.750000
2951.225586	229576.812500
2949.881836	238459.000000
2948.539063	248983.140625
2947.195313	261220.828125
2945.852539	274304.062500
2944.507813	287261.281250
2943.164063	301545.125000
2941.819336	314060.625000
2940.474609	323133.687500
2939.129883	327626.875000
2937.784180	330508.937500
2936.439453	332962.500000
2935.093750	334787.218750
2933.747070	335983.406250
2932.401367	337210.687500
2931.054688	337785.781250
2929.708008	338403.343750
2928.360352	338545.562500
2927.013672	338607.906250
2925.666016	338545.906250
2924.318359	338522.843750
2922.969727	338355.156250
2921.621094	337918.656250
2920.272461	337801.156250
2918.923828	337472.406250
2917.575195	337406.875000
2916.225586	337033.843750
2914.875977	336922.093750
2913.525391	326406.156250
2912.175781	289538.937500
2910.825195	286679.937500
2909.474609	284638.281250
2908.123047	273444.843750
2906.772461	232309.328125
2905.420898	229139.906250
2904.069336	226491.406250
2902.716797	224184.156250
2901.364258	222131.046875
2900.011719	220784.796875
2898.659180	218723.890625
2897.305664	210784.625000
2895.953125	171424.578125
2894.599609	169516.640625
2893.245117	167845.796875
2891.891602	166254.984375
2890.537109	164910.265625
2889.181641	163108.406250
2887.827148	162388.453125
2886.471680	160530.578125
2885.116211	159892.546875
2883.760742	157880.953125
2882.405273	157238.140625
2881.048828	156614.015625
2879.692383	155123.921875
2878.334961	154513.312500
2876.978516	153604.500000
2875.621094	152099.265625
2874.263672	151749.250000
2872.905273	151719.718750
2871.547852	151960.796875
2870.189453	150313.453125
2868.830078	149343.906250
2867.471680	149003.921875
2866.112305	148507.718750
2864.752930	148241.578125
2863.393555	148152.031250
2862.033203	147568.015625
2860.672852	147693.671875
2859.312500	147225.734375
2857.952148	147672.890625
2856.590820	147320.843750
2855.229492	147371.125000
2853.868164	147566.421875
2852.505859	146641.812500
2851.144531	146910.578125
2849.782227	146535.125000
2848.418945	147123.046875
2847.056641	146767.859375
2845.693359	147032.703125
2844.330078	146012.031250
2842.965820	145750.750000
2841.602539	144901.187500
2840.238281	143665.265625
2838.874023	142981.328125
2837.508789	142720.796875
2836.143555	141284.546875
2834.778320	139757.281250
2833.413086	139113.046875
2832.046875	138163.375000
2830.681641	136714.453125
2829.314453	136032.750000
2827.948242	134067.093750
2826.581055	134048.250000
2825.214844	133051.078125
2823.846680	132334.031250
2822.479492	131880.468750
2821.111328	131218.734375
2819.743164	130129.687500
2818.375000	130350.921875
2817.005859	129700.812500
2815.636719	129001.640625
2814.267578	128054.429688
2812.898438	127992.929688
2811.528320	127989.835938
2810.158203	127417.429688
2808.788086	126834.296875
2807.416992	126915.320313
2806.046875	126031.593750
2804.675781	125775.414063
2803.303711	126356.070313
2801.932617	125817.421875
2800.560547	125530.445313
2799.188477	125303.687500
2797.815430	125597.976563
2796.443359	124766.656250
2795.070313	124243.375000
2793.696289	124237.304688
2792.323242	123929.093750
2790.949219	124419.859375
2789.575195	123700.531250
2788.201172	123050.609375
2786.826172	123046.554688
2785.451172	122504.281250
2784.076172	122271.265625
2782.701172	122231.000000
2781.325195	122299.781250
2779.949219	121818.007813
2778.573242	121868.656250
2777.196289	121634.148438
2775.819336	121232.664063
2774.442383	121731.804688
2773.065430	120622.546875
2771.687500	120954.648438
2770.309570	120658.820313
2768.931641	120181.695313
2767.553711	121006.992188
2766.174805	120450.187500
2764.795898	120325.093750
2763.416992	120209.093750
2762.037109	119366.414063
2760.657227	119634.765625
2759.277344	119970.039063
2757.897461	119504.617188
2756.516602	119741.984375
2755.135742	119383.593750
2753.754883	119188.250000
2752.373047	119221.015625
2750.991211	119069.195313
2749.609375	119279.250000
2748.227539	119512.726563
2746.844727	119416.984375
2745.461914	118614.328125
2744.079102	119343.085938
2742.696289	118909.437500
2741.312500	118822.890625
2739.928711	119305.460938
2738.544922	118998.500000
2737.160156	118512.867188
2735.775391	119054.773438
2734.390625	118708.304688
2733.005859	118463.039063
2731.620117	118654.554688
2730.234375	118912.734375
2728.848633	118709.039063
2727.461914	118552.312500
2726.076172	118958.195313
2724.689453	118615.789063
2723.301758	118852.062500
2721.915039	119217.992188
2720.527344	119180.187500
2719.138672	120098.898438
2717.750977	119713.343750
2716.362305	120113.000000
2714.973633	120382.875000
2713.584961	120976.617188
2712.195313	120675.742188
2710.806641	120479.335938
2709.416016	120613.992188
2708.026367	120770.164063
2706.635742	120401.218750
2705.245117	119795.101563
2703.854492	119760.796875
2702.462891	119061.585938
2701.072266	119135.226563
2699.680664	118116.648438
2698.288086	117741.429688
2696.896484	117043.140625
2695.503906	117153.000000
2694.110352	116665.093750
2692.717773	116132.507813
2691.324219	115775.968750
2689.930664	115227.609375
2688.537109	114679.460938
2687.142578	115089.085938
2685.748047	115007.304688
2684.353516	114190.625000
2682.958984	114463.890625
2681.563477	114393.015625
2680.167969	113996.117188
2678.771484	113912.812500
2677.375977	114151.859375
2675.979492	113330.914063
2674.583008	113414.242188
2673.185547	113245.187500
2671.789063	113314.171875
2670.391602	112517.257813
2668.993164	113072.851563
2667.595703	112596.390625
2666.197266	112525.968750
2664.798828	112666.500000
2663.400391	112496.000000
2662.000977	112581.078125
2660.601563	112021.187500
2659.202148	112497.476563
2657.801758	111919.953125
2656.401367	111937.210938
2655.000977	111542.085938
2653.600586	111536.195313
2652.199219	111144.867188
2650.797852	111247.875000
2649.396484	110949.500000
2647.995117	111241.523438
2646.592773	111034.187500
2645.190430	110835.835938
2643.787109	110327.445313
2642.384766	110724.468750
2640.981445	110490.648438
2639.578125	110855.414063
2638.173828	110521.921875
2636.769531	110478.781250
2635.365234	109958.562500
2633.960938	109817.648438
2632.555664	110208.843750
2631.150391	109628.484375
2629.745117	109315.156250
2628.339844	109745.328125
2626.933594	109609.898438
2625.527344	109632.734375
2624.121094	109204.101563
2622.713867	108805.843750
2621.306641	109537.703125
2619.899414	109571.171875
2618.492188	108816.085938
2617.083984	108933.125000
2615.675781	108970.218750
2614.266602	108806.734375
2612.858398	108925.460938
2611.449219	108763.812500
2610.040039	108305.976563
2608.629883	108431.812500
2607.220703	108314.664063
2605.810547	108736.500000
2604.399414	108234.695313
2602.989258	108124.734375
2601.578125	108491.414063
2600.166992	107917.312500
2598.754883	108264.390625
2597.343750	107626.804688
2595.930664	107421.437500
2594.518555	107148.882813
2593.106445	107320.617188
2591.693359	107745.296875
2590.280273	107531.203125
2588.866211	106675.164063
2587.452148	107570.070313
2586.038086	107168.710938
2584.624023	107386.164063
2583.208984	106672.195313
2581.794922	106909.085938
2580.378906	107260.703125
2578.963867	106633.703125
2577.547852	107161.804688
2576.131836	106845.789063
2574.715820	106757.593750
2573.298828	107509.476563
2571.881836	106477.195313
2570.464844	107459.914063
2569.047852	106604.414063
2567.629883	106913.093750
2566.211914	106833.773438
2564.793945	106805.593750
2563.375000	106435.531250
2561.956055	107242.617188
2560.537109	107087.523438
2559.118164	106872.593750
2557.698242	106967.679688
2556.278320	106742.281250
2554.857422	106460.648438
2553.437500	106819.718750
2552.016602	106944.625000
2550.595703	106415.054688
2549.173828	106759.835938
2547.752930	106937.414063
2546.330078	106000.242188
2544.908203	106489.031250
2543.485352	106200.812500
2542.063477	106084.898438
2540.639648	106308.085938
2539.216797	106330.945313
2537.792969	106206.281250
2536.369141	106220.367188
2534.945313	106266.031250
2533.520508	105979.968750
2532.095703	106099.351563
2530.670898	105806.414063
2529.245117	105841.578125
2527.819336	106257.265625
2526.393555	105892.562500
2524.967773	105848.789063
2523.541016	105419.460938
2522.114258	105643.882813
2520.687500	105225.257813
2519.260742	105255.195313
2517.833008	105220.320313
2516.405273	105428.828125
2514.976563	104963.289063
2513.547852	104886.468750
2512.119141	104867.421875
2510.690430	104619.195313
2509.261719	104841.578125
2507.832031	104953.687500
2506.402344	104469.531250
2504.971680	104730.257813
2503.541016	104933.187500
2502.110352	104293.789063
2500.679688	104349.968750
2499.248047	104683.843750
2497.816406	104401.117188
2496.384766	104465.953125
2494.953125	104326.515625
2493.520508	104136.515625
2492.087891	103801.742188
2490.655273	104763.367188
2489.221680	103875.656250
2487.788086	104339.851563
2486.354492	103764.671875
2484.919922	104070.054688
2483.485352	104333.476563
2482.050781	103995.609375
2480.616211	104084.718750
2479.180664	104569.179688
2477.745117	104384.703125
2476.309570	103841.617188
2474.873047	103791.390625
2473.437500	103890.867188
2472.000000	103729.273438
2470.563477	104355.859375
2469.125977	104187.265625
2467.688477	104439.593750
2466.250977	103655.523438
2464.812500	103791.375000
2463.374023	103868.078125
2461.935547	103856.117188
2460.497070	104094.335938
2459.057617	104096.218750
2457.618164	104082.460938
2456.177734	103657.203125
2454.738281	104379.585938
2453.297852	104874.312500
2451.857422	104447.390625
2450.416016	104648.687500
2448.974609	104449.203125
2447.533203	104013.937500
2446.091797	104742.289063
2444.649414	104483.945313
2443.207031	104643.414063
2441.764648	104882.515625
2440.321289	104440.632813
2438.877930	104527.242188
2437.434570	104948.054688
2435.990234	104916.773438
2434.546875	105259.429688
2433.101563	104438.835938
2431.657227	104790.093750
2430.211914	104879.953125
2428.766602	104812.359375
2427.321289	105322.421875
2425.875977	104483.585938
2424.429688	104627.000000
2422.983398	104986.406250
2421.536133	104315.742188
2420.089844	104899.656250
2418.642578	104279.359375
2417.194336	104807.773438
2415.747070	103970.164063
2414.298828	104146.250000
2412.849609	103640.484375
2411.401367	103709.562500
2409.952148	103707.867188
2408.502930	102988.585938
2407.052734	103723.429688
2405.603516	102376.789063
2404.152344	102830.453125
2402.703125	102863.375000
2401.251953	102672.257813
2399.800781	102324.429688
2398.349609	102443.546875
2396.898438	102354.226563
2395.445313	102001.484375
2393.994141	101464.679688
2392.541016	101928.085938
2391.087891	101350.195313
2389.634766	101562.242188
2388.181641	101161.820313
2386.728516	101268.890625
2385.275391	101465.328125
2383.820313	101121.882813
2382.365234	100642.781250
2380.910156	100607.226563
2379.455078	99985.804688
2378.000000	100048.296875
2376.544922	99696.859375
2375.089844	99027.898438
2373.632813	98990.953125
2372.175781	98610.742188
2370.718750	98587.617188
2369.261719	98137.281250
2367.804688	97930.703125
2366.347656	97043.343750
2364.888672	96677.593750
2363.429688	96303.414063
2361.972656	96159.046875
2360.513672	95762.828125
2359.054688	95611.765625
2357.593750	94958.867188
2356.134766	94350.750000
2354.673828	94532.218750
2353.214844	94278.789063
2351.753906	93821.773438
2350.292969	93096.273438
2348.832031	93190.578125
2347.369141	93002.593750
2345.908203	92096.398438
2344.445313	92209.632813
2342.984375	92018.523438
2341.521484	91372.851563
2340.058594	91187.101563
2338.593750	90885.242188
2337.130859	90593.757813
2335.667969	91451.734375
2334.203125	91899.570313
2332.738281	93045.445313
2331.273438	94390.539063
2329.808594	95146.375000
2328.343750	93410.984375
2326.878906	91422.125000
2325.412109	89572.195313
2323.945313	89303.617188
2322.478516	89515.875000
2321.011719	89005.375000
2319.544922	88403.054688
2318.078125	89053.210938
2316.611328	88636.781250
2315.142578	87776.023438
2313.673828	87998.515625
2312.205078	87694.890625
2310.736328	87330.109375
2309.267578	87406.203125
2307.798828	87136.890625
2306.328125	87605.906250
2304.859375	87338.351563
2303.388672	86678.132813
2301.917969	87310.140625
2300.447266	86825.242188
2298.974609	86501.960938
2297.503906	86639.218750
2296.031250	86603.164063
2294.560547	86815.062500
2293.087891	86318.835938
2291.615234	86123.281250
2290.142578	86060.179688
2288.667969	85791.773438
2287.195313	86317.460938
2285.720703	85706.468750
2284.246094	85556.992188
2282.773438	85465.218750
2281.296875	85580.296875
2279.822266	85880.062500
2278.347656	85134.179688
2276.871094	85508.445313
2275.396484	84729.054688
2273.919922	85194.695313
2272.443359	85143.726563
2270.966797	85333.156250
2269.488281	84992.757813
2268.011719	84855.546875
2266.533203	85046.593750
2265.056641	85061.656250
2263.578125	84638.703125
2262.099609	84471.218750
2260.619141	84471.156250
2259.140625	84694.179688
2257.662109	84548.734375
2256.181641	84031.679688
2254.701172	83957.367188
2253.220703	83849.304688
2251.740234	83896.609375
2250.259766	84274.750000
2248.777344	84443.460938
2247.296875	83969.203125
2245.814453	83727.945313
2244.332031	84218.812500
2242.849609	83992.765625
2241.367188	83557.742188
2239.884766	83814.023438
2238.400391	83687.617188
2236.917969	83418.031250
2235.433594	83968.984375
2233.949219	83436.687500
2232.464844	84258.531250
2230.978516	83610.210938
2229.494141	83280.289063
2228.009766	83431.828125
2226.523438	83793.632813
2225.037109	83230.023438
2223.550781	83398.281250
2222.064453	83263.781250
2220.576172	83105.796875
2219.089844	83226.898438
2217.601563	83253.835938
2216.115234	82699.390625
2214.626953	83013.687500
2213.138672	83205.234375
2211.648438	83178.406250
2210.160156	83324.507813
2208.669922	83386.617188
2207.181641	82920.046875
2205.691406	83329.531250
2204.201172	83248.992188
2202.710938	83250.671875
2201.218750	82866.656250
2199.728516	82932.109375
2198.236328	82528.187500
2196.744141	82746.179688
2195.251953	83041.148438
2193.759766	82920.546875
2192.267578	82895.453125
2190.775391	82962.468750
2189.281250	82800.085938
2187.787109	82852.015625
2186.294922	83168.335938
2184.800781	82676.382813
2183.304688	82755.062500
2181.810547	82902.273438
2180.316406	82947.421875
2178.820313	83036.007813
2177.324219	82960.757813
2175.828125	82679.976563
2174.332031	83079.320313
2172.835938	82837.046875
2171.337891	83012.390625
2169.841797	82852.031250
2168.343750	82770.203125
2166.845703	82673.375000
2165.347656	83262.453125
2163.849609	82903.609375
2162.351563	82723.398438
2160.851563	82471.539063
2159.353516	82846.734375
2157.853516	82469.906250
2156.353516	82193.234375
2154.853516	82326.609375
2153.353516	82641.531250
2151.851563	82838.054688
2150.351563	82594.820313
2148.849609	82350.015625
2147.347656	81998.765625
2145.845703	82018.812500
2144.343750	82223.554688
2142.839844	82468.148438
2141.337891	82513.023438
2139.833984	81747.960938
2138.330078	82175.382813
2136.826172	81756.468750
2135.322266	81876.234375
2133.818359	81828.101563
2132.314453	81770.023438
2130.808594	82094.000000
2129.302734	81539.320313
2127.796875	81587.585938
2126.291016	82024.273438
2124.785156	81269.109375
2123.279297	81773.710938
2121.771484	81169.867188
2120.263672	81362.437500
2118.757813	81452.109375
2117.250000	81296.351563
2115.740234	81120.757813
2114.232422	81165.664063
2112.724609	81223.796875
2111.214844	81346.515625
2109.705078	81205.820313
2108.195313	80917.789063
2106.685547	81023.929688
2105.175781	80659.898438
2103.664063	81216.195313
2102.154297	80544.492188
2100.642578	80940.109375
2099.130859	80544.945313
2097.619141	81190.101563
2096.107422	80547.039063
2094.595703	80735.687500
2093.082031	80487.953125
2091.570313	80762.453125
2090.056641	80756.000000
2088.542969	80501.796875
2087.029297	80536.664063
2085.513672	80660.679688
2084.000000	80471.007813
2082.484375	80563.609375
2080.968750	80217.281250
2079.455078	80174.617188
2077.937500	80194.648438
2076.421875	80208.062500
2074.906250	80018.687500
2073.388672	80203.554688
2071.873047	80190.578125
2070.355469	79846.429688
2068.837891	80525.398438
2067.320313	80471.179688
2065.800781	80189.742188
2064.283203	80003.898438
2062.763672	79663.406250
2061.244141	80165.609375
2059.724609	80188.828125
2058.205078	79961.992188
2056.685547	79720.445313
2055.164063	79848.960938
2053.644531	79745.617188
2052.123047	80155.125000
2050.601563	79645.859375
2049.080078	79534.390625
2047.558594	79861.546875
2046.035156	79436.390625
2044.513672	79702.671875
2042.990234	79537.093750
2041.466797	79356.804688
2039.943359	79524.468750
2038.419922	79777.375000
2036.896484	79474.109375
2035.371094	79375.960938
2033.847656	79094.203125
2032.322266	79033.867188
2030.796875	79325.929688
2029.271484	79000.101563
2027.744141	79375.593750
2026.218750	79207.117188
2024.691406	79081.296875
2023.164063	79210.929688
2021.636719	79158.812500
2020.109375	78756.460938
2018.582031	79064.429688
2017.054688	78600.093750
2015.525391	79082.968750
2013.996094	78846.117188
2012.468750	78473.648438
2010.939453	78555.757813
2009.408203	78020.062500
2007.878906	78893.070313
2006.347656	78690.773438
2004.818359	78929.554688
2003.287109	78539.531250
2001.755859	78353.750000
2000.224609	78577.750000
1998.691406	77993.820313
1997.160156	77896.359375
1995.626953	77958.796875
1994.093750	77921.718750
1992.560547	77904.210938
1991.027344	78124.742188
1989.494141	77968.648438
1987.960938	77537.203125
1986.425781	77311.226563
1984.890625	77582.171875
1983.355469	77919.781250
1981.820313	77573.351563
1980.285156	77521.726563
1978.750000	77707.757813
1977.212891	77242.773438
1975.675781	77394.609375
1974.138672	77258.453125
1972.601563	77515.929688
1971.064453	77410.695313
1969.527344	77320.125000
1967.988281	77320.609375
1966.451172	77116.343750
1964.912109	77211.093750
1963.373047	76709.664063
1961.833984	76874.281250
1960.292969	77202.812500
1958.753906	76823.437500
1957.212891	76918.125000
1955.671875	77016.015625
1954.130859	76771.546875
1952.589844	76652.070313
1951.048828	76882.921875
1949.505859	76873.710938
1947.964844	76858.015625
1946.421875	76489.015625
1944.878906	76739.140625
1943.335938	76384.882813
1941.792969	76260.765625
1940.248047	76548.007813
1938.705078	76307.328125
1937.160156	76476.281250
1935.615234	76397.539063
1934.070313	76093.914063
1932.525391	76128.523438
1930.978516	76423.507813
1929.433594	76035.968750
1927.886719	76073.781250
1926.339844	76173.000000
1924.792969	76159.046875
1923.246094	76508.632813
1921.699219	75851.679688
1920.150391	76023.523438
1918.601563	75985.367188
1917.052734	76178.093750
1915.503906	75894.578125
1913.955078	75588.578125
1912.406250	75752.210938
1910.855469	76059.343750
1909.306641	75958.304688
1907.755859	75639.625000
1906.205078	75662.843750
1904.654297	76101.890625
1903.101563	75744.687500
1901.550781	76157.750000
1899.998047	75644.429688
1898.447266	75667.593750
1896.894531	75695.585938
1895.339844	75746.093750
1893.787109	75967.179688
1892.234375	75821.281250
1890.679688	75720.492188
1889.125000	75634.218750
1887.570313	75488.468750
1886.015625	75667.554688
1884.460938	75766.187500
1882.906250	75303.882813
1881.349609	75892.625000
1879.792969	75489.906250
1878.236328	75371.648438
1876.679688	75185.984375
1875.123047	75692.375000
1873.566406	75442.507813
1872.007813	75386.921875
1870.449219	75363.453125
1868.890625	74962.992188
1867.332031	74759.976563
1865.773438	74789.546875
1864.214844	74439.140625
1862.654297	74321.289063
1861.093750	74759.578125
1859.533203	74269.984375
1857.972656	74504.648438
1856.412109	74574.257813
1854.851563	74514.125000
1853.289063	74630.117188
1851.728516	74453.140625
1850.166016	74460.273438
1848.603516	74513.789063
1847.039063	74116.195313
1845.476563	74029.015625
1843.914063	74340.007813
1842.349609	74267.203125
1840.785156	74397.406250
1839.220703	74447.648438
1837.656250	74601.710938
1836.091797	74447.429688
1834.525391	74085.601563
1832.958984	74322.656250
1831.392578	74227.578125
1829.826172	74265.000000
1828.259766	74200.281250
1826.693359	74052.625000
1825.125000	74399.484375
1823.558594	74036.554688
1821.990234	74121.789063
1820.421875	74213.359375
1818.853516	73630.750000
1817.285156	73730.343750
1815.714844	74102.304688
1814.144531	73695.257813
1812.576172	73981.070313
1811.005859	73978.601563
1809.433594	73821.726563
1807.863281	73777.906250
1806.292969	73595.671875
1804.720703	73769.835938
1803.148438	73581.304688
1801.576172	73348.328125
1800.003906	73624.171875
1798.431641	73833.140625
1796.857422	73854.500000
1795.285156	73672.484375
1793.710938	73906.710938
1792.136719	73980.437500
1790.562500	73962.039063
1788.986328	73942.054688
1787.412109	73558.617188
1785.835938	74075.062500
1784.259766	74067.750000
1782.683594	74104.843750
1781.107422	73827.921875
1779.531250	73952.250000
1777.955078	74306.367188
1776.376953	73720.515625
1774.798828	73914.492188
1773.220703	74056.101563
1771.642578	74047.187500
1770.064453	74511.750000
1768.484375	73945.429688
1766.906250	74015.671875
1765.326172	74106.460938
1763.746094	74148.148438
1762.166016	73993.656250
1760.583984	74106.515625
1759.003906	74250.953125
1757.421875	73982.695313
1755.841797	74680.304688
1754.259766	74182.914063
1752.675781	74156.562500
1751.093750	74411.390625
1749.511719	74167.046875
1747.927734	74843.351563
1746.343750	74264.328125
1744.759766	74473.132813
1743.175781	74588.750000
1741.591797	74917.304688
1740.005859	74742.531250
1738.421875	74936.859375
1736.835938	75050.687500
1735.250000	75230.671875
1733.664063	75826.664063
1732.076172	75915.007813
1730.490234	76000.164063
1728.902344	76430.234375
1727.316406	77318.375000
1725.728516	77318.156250
1724.138672	77662.664063
1722.550781	78979.640625
1720.962891	79696.570313
1719.373047	80749.851563
1717.783203	82578.093750
1716.193359	84532.953125
1714.603516	87104.867188
1713.013672	90599.960938
1711.421875	93901.875000
1709.830078	98311.687500
1708.240234	102598.718750
1706.648438	106987.632813
1705.054688	110652.414063
1703.462891	113942.039063
1701.871094	116128.453125
1700.277344	116595.617188
1698.683594	115835.687500
1697.089844	113272.164063
1695.496094	110502.679688
1693.902344	105804.179688
1692.306641	101471.304688
1690.710938	97293.812500
1689.117188	93260.640625
1687.521484	89808.796875
1685.923828	87295.046875
1684.328125	85115.882813
1682.730469	83546.679688
1681.134766	82483.726563
1679.537109	81249.054688
1677.939453	80559.406250
1676.341797	79829.375000
1674.742188	79321.726563
1673.144531	79299.054688
1671.544922	78605.671875
1669.945313	78564.390625
1668.345703	78118.359375
1666.746094	77989.687500
1665.144531	78193.789063
1663.544922	77780.898438
1661.943359	78094.257813
1660.341797	77225.695313
1658.740234	77339.242188
1657.138672	77774.203125
1655.535156	77413.289063
1653.933594	77108.671875
1652.330078	77204.976563
1650.726563	77132.843750
1649.123047	76993.703125
1647.519531	76620.835938
1645.914063	76643.906250
1644.310547	76955.179688
1642.705078	76464.156250
1641.099609	76396.914063
1639.494141	76697.132813
1637.888672	76113.054688
1636.281250	76294.921875
1634.675781	76084.593750
1633.068359	76289.718750
1631.460938	76396.757813
1629.853516	75656.273438
1628.244141	75861.343750
1626.636719	75576.695313
1625.027344	75691.546875
1623.417969	75825.000000
1621.808594	75422.460938
1620.199219	75214.226563
1618.589844	75687.726563
1616.978516	75409.656250
1615.369141	75215.507813
1613.757813	74555.890625
1612.146484	75421.648438
1610.535156	74861.531250
1608.921875	74403.992188
1607.310547	74759.109375
1605.697266	75028.812500
1604.083984	74588.562500
1602.470703	74856.632813
1600.857422	74658.273438
1599.242188	74529.687500
1597.628906	74645.828125
1596.013672	74498.718750
1594.398438	74305.218750
1592.783203	74410.492188
1591.167969	74167.570313
1589.550781	74016.015625
1587.935547	74210.968750
1586.318359	74393.468750
1584.701172	73690.031250
1583.083984	74092.039063
1581.466797	73804.648438
1579.847656	73841.828125
1578.230469	73882.078125
1576.611328	73485.242188
1574.992188	73437.523438
1573.373047	73400.632813
1571.751953	73643.109375
1570.132813	73359.289063
1568.511719	73530.695313
1566.890625	73362.687500
1565.269531	73379.804688
1563.648438	73560.335938
1562.027344	73349.250000
1560.404297	73566.703125
1558.783203	74018.265625
1557.160156	74327.898438
1555.537109	74638.945313
1553.912109	74272.304688
1552.289063	73550.171875
1550.664063	73307.039063
1549.041016	73490.289063
1547.416016	73188.796875
1545.791016	73138.171875
1544.164063	72893.773438
1542.539063	73307.585938
1540.912109	73481.398438
1539.287109	73115.640625
1537.660156	73164.945313
1536.033203	73209.609375
1534.404297	73418.609375
1532.777344	73556.875000
1531.148438	73328.117188
1529.519531	73299.007813
1527.890625	73338.976563
1526.261719	73612.156250
1524.632813	73308.390625
1523.001953	73875.945313
1521.373047	73596.773438
1519.742188	73630.476563
1518.111328	73857.304688
1516.478516	73359.148438
1514.847656	73996.562500
1513.214844	73884.609375
1511.583984	73991.710938
1509.951172	74115.609375
1508.318359	73496.953125
1506.683594	73819.875000
1505.050781	73565.734375
1503.416016	73440.218750
1501.783203	73123.539063
1500.148438	74028.929688
1498.511719	73377.398438
1496.876953	72810.210938
1495.242188	73132.773438
1493.605469	73021.226563
1491.968750	73094.578125
1490.332031	73025.843750
1488.695313	72932.703125
1487.058594	73009.070313
1485.419922	73802.835938
1483.781250	73592.062500
1482.142578	73093.000000
1480.503906	73753.515625
1478.865234	73870.789063
1477.226563	73904.140625
1475.585938	73967.960938
1473.945313	74217.710938
1472.304688	74208.281250
1470.664063	74736.687500
1469.023438	75025.703125
1467.380859	74816.593750
1465.740234	75540.945313
1464.097656	75538.843750
1462.455078	75550.429688
1460.812500	75948.523438
1459.167969	76354.046875
1457.525391	76404.992188
1455.880859	76805.671875
1454.236328	77565.007813
1452.591797	77757.023438
1450.947266	78348.648438
1449.302734	79297.093750
1447.656250	79591.914063
1446.009766	80741.695313
1444.363281	81493.148438
1442.716797	82256.421875
1441.070313	83612.851563
1439.421875	85061.289063
1437.775391	86073.664063
1436.126953	87035.546875
1434.478516	88476.273438
1432.830078	89564.609375
1431.179688	90910.195313
1429.531250	91382.210938
1427.880859	91591.867188
1426.230469	91333.296875
1424.580078	90835.515625
1422.929688	90407.593750
1421.279297	89131.976563
1419.626953	87555.656250
1417.974609	86061.718750
1416.322266	84807.468750
1414.669922	83361.625000
1413.017578	82109.968750
1411.363281	80789.273438
1409.710938	79939.312500
1408.056641	79254.453125
1406.402344	78439.914063
1404.748047	77719.382813
1403.091797	77127.554688
1401.437500	76690.007813
1399.781250	76089.570313
1398.125000	75471.265625
1396.468750	74812.468750
1394.812500	74644.351563
1393.154297	74406.906250
1391.498047	74002.132813
1389.839844	73954.921875
1388.181641	73577.539063
1386.523438	73544.000000
1384.865234	73308.515625
1383.205078	72868.210938
1381.544922	73139.125000
1379.884766	72906.875000
1378.224609	73087.312500
1376.564453	72921.406250
1374.904297	72886.515625
1373.242188	73212.796875
1371.580078	73681.867188
1369.919922	74176.312500
1368.255859	75163.828125
1366.593750	75863.734375
1364.931641	76718.179688
1363.267578	76950.031250
1361.603516	76672.390625
1359.939453	76031.296875
1358.275391	75261.296875
1356.611328	73818.851563
1354.945313	72782.390625
1353.279297	72034.554688
1351.613281	71130.953125
1349.947266	70866.914063
1348.281250	70759.000000
1346.615234	69661.250000
1344.947266	69664.578125
1343.279297	69072.734375
1341.611328	69250.046875
1339.943359	68982.218750
1338.275391	68931.734375
1336.605469	69062.515625
1334.935547	68507.343750
1333.267578	68431.531250
1331.597656	68352.750000
1329.925781	68324.882813
1328.255859	68439.171875
1326.583984	68242.242188
1324.912109	67753.726563
1323.240234	68074.414063
1321.568359	68115.390625
1319.896484	67906.710938
1318.224609	67539.710938
1316.550781	67589.726563
1314.876953	67757.726563
1313.203125	67883.828125
1311.529297	67454.414063
1309.853516	67771.609375
1308.179688	67557.312500
1306.503906	67541.578125
1304.828125	67181.203125
1303.152344	67657.773438
1301.474609	67500.335938
1299.798828	67897.609375
1298.121094	67403.289063
1296.443359	67007.539063
1294.765625	67745.867188
1293.087891	66912.226563
1291.410156	67461.101563
1289.730469	67633.000000
1288.050781	67182.515625
1286.371094	67122.187500
1284.691406	67407.132813
1283.011719	67638.398438
1281.332031	66846.140625
1279.650391	67226.132813
1277.968750	66911.585938
1276.287109	67310.726563
1274.605469	67052.757813
1272.921875	67133.695313
1271.240234	66957.578125
1269.556641	67307.335938
1267.873047	67077.789063
1266.189453	67362.039063
1264.505859	67157.804688
1262.820313	67707.554688
1261.134766	67503.320313
1259.451172	67542.460938
1257.765625	68084.351563
1256.078125	68206.375000
1254.392578	68426.187500
1252.705078	68857.859375
1251.019531	69717.601563
1249.332031	71031.812500
1247.642578	72029.960938
1245.955078	72943.273438
1244.267578	74923.710938
1242.578125	76188.328125
1240.888672	76246.203125
1239.199219	75796.531250
1237.509766	75252.351563
1235.818359	73772.171875
1234.128906	72348.796875
1232.437500	71477.468750
1230.746094	69594.007813
1229.054688	69599.960938
1227.363281	68911.492188
1225.669922	68198.195313
1223.976563	67864.757813
1222.283203	68110.257813
1220.589844	68265.601563
1218.896484	68082.882813
1217.203125	67900.242188
1215.507813	68149.937500
1213.812500	68228.421875
1212.117188	67978.015625
1210.421875	68374.960938
1208.726563	68631.695313
1207.029297	68894.210938
1205.332031	68696.906250
1203.636719	69116.914063
1201.937500	69152.335938
1200.240234	69339.406250
1198.542969	69655.945313
1196.843750	69878.140625
1195.144531	69880.984375
1193.445313	70306.062500
1191.746094	70769.203125
1190.046875	70755.664063
1188.345703	71208.210938
1186.644531	71360.679688
1184.943359	71762.929688
1183.242188	71735.945313
1181.541016	72603.625000
1179.837891	72975.968750
1178.136719	73083.828125
1176.433594	73696.671875
1174.730469	74290.164063
1173.027344	74372.718750
1171.322266	74868.976563
1169.619141	75127.382813
1167.914063	75599.796875
1166.208984	75969.367188
1164.503906	76740.437500
1162.796875	77103.734375
1161.091797	77800.968750
1159.384766	77656.984375
1157.677734	78176.562500
1155.970703	78928.750000
1154.263672	79474.187500
1152.554688	79848.117188
1150.847656	80033.101563
1149.138672	80825.210938
1147.429688	81144.476563
1145.720703	82412.781250
1144.009766	82656.992188
1142.300781	83079.453125
1140.589844	84049.812500
1138.878906	84660.289063
1137.167969	85058.656250
1135.455078	85732.914063
1133.744141	86669.742188
1132.031250	87499.585938
1130.318359	88187.468750
1128.605469	88961.164063
1126.892578	89264.695313
1125.179688	90958.320313
1123.464844	91771.750000
1121.750000	92163.421875
1120.035156	93108.906250
1118.320313	94030.664063
1116.605469	94460.929688
1114.888672	94551.539063
1113.171875	95804.492188
1111.455078	96363.703125
1109.738281	97282.296875
1108.021484	97717.203125
1106.302734	98274.171875
1104.585938	98713.039063
1102.867188	98856.398438
1101.148438	99137.859375
1099.429688	99119.648438
1097.708984	99807.992188
1095.990234	99311.421875
1094.269531	99431.218750
1092.548828	99706.414063
1090.828125	99844.945313
1089.105469	98968.265625
1087.384766	99029.929688
1085.662109	99016.070313
1083.939453	98916.585938
1082.216797	99615.210938
1080.492188	100476.007813
1078.769531	100910.007813
1077.044922	102474.898438
1075.320313	102998.164063
1073.595703	103266.085938
1071.871094	101923.851563
1070.146484	100540.164063
1068.419922	97804.101563
1066.693359	95639.804688
1064.966797	93178.156250
1063.240234	91429.796875
1061.513672	89782.031250
1059.785156	88680.492188
1058.056641	87711.070313
1056.328125	86700.117188
1054.599609	85676.562500
1052.871094	84871.765625
1051.140625	83655.335938
1049.412109	83286.296875
1047.681641	82820.593750
1045.951172	82235.195313
1044.218750	81712.140625
1042.488281	80888.968750
1040.755859	80414.054688
1039.023438	79949.445313
1037.291016	79355.148438
1035.558594	79097.257813
1033.826172	78398.101563
1032.091797	78163.585938
1030.357422	77289.023438
1028.623047	77260.960938
1026.888672	76888.476563
1025.154297	76410.960938
1023.417969	75886.109375
1021.681641	75440.687500
1019.945313	75407.273438
1018.208984	74705.882813
1016.472656	74692.781250
1014.734375	74623.554688
1012.998047	74463.718750
1011.259766	74746.960938
1009.521484	74257.835938
1007.783203	74309.523438
1006.042969	74323.796875
1004.302734	74486.093750
1002.564453	75004.656250
1000.824219	75046.054688
999.082031	75320.101563
997.341797	75143.148438
995.599609	75827.632813
993.859375	76371.164063
992.117188	76217.039063
990.373047	76149.062500
988.630859	76030.906250
986.886719	75687.648438
985.144531	75324.460938
983.400391	75189.335938
981.656250	74946.789063
979.910156	74407.734375
978.166016	73659.757813
976.419922	72996.593750
974.673828	72376.671875
972.927734	72172.179688
971.181641	71755.937500
969.433594	72011.007813
967.687500	71935.476563
965.939453	71881.421875
964.191406	71515.632813
962.441406	71737.632813
960.693359	71773.703125
958.943359	71212.367188
957.195313	71647.171875
955.445313	71721.796875
953.693359	71485.023438
951.943359	71800.960938
950.191406	71618.515625
948.441406	71192.078125
946.689453	71449.351563
944.935547	71608.070313
943.183594	71368.750000
941.431641	71282.117188
939.677734	71038.679688
937.923828	71175.945313
936.169922	71075.148438
934.414063	71149.648438
932.660156	71080.226563
930.904297	70653.343750
929.148438	71035.445313
927.392578	70815.171875
925.636719	70442.695313
923.878906	70786.156250
922.123047	70624.398438
920.365234	70286.328125
918.607422	70412.007813
916.849609	70287.390625
915.089844	69867.148438
913.330078	70150.570313
911.572266	69503.187500
909.812500	69826.335938
908.050781	69290.070313
906.291016	69263.804688
904.529297	68918.125000
902.767578	68873.484375
901.005859	68393.210938
899.244141	68052.179688
897.482422	68168.031250
895.718750	67678.281250
893.957031	67726.093750
892.193359	67333.031250
890.427734	67423.414063
888.664063	66733.023438
886.898438	67186.140625
885.134766	66882.742188
883.369141	66643.187500
881.603516	66433.468750
879.835938	66651.281250
878.070313	66244.945313
876.302734	66403.281250
874.535156	66277.226563
872.767578	66462.343750
871.000000	65868.328125
869.230469	65912.093750
867.460938	66156.515625
865.693359	66235.507813
863.921875	65989.554688
862.152344	65482.414063
860.382813	65538.898438
858.611328	65780.296875
856.839844	65654.601563
855.068359	65380.796875
853.296875	65131.085938
851.523438	65157.941406
849.751953	65286.316406
847.978516	65282.101563
846.205078	65277.882813
844.431641	65423.050781
842.656250	65151.082031
840.880859	65683.601563
839.107422	65842.656250
837.332031	65746.773438
835.554688	66333.703125
833.779297	66529.101563
832.001953	67197.218750
830.226563	67267.125000
828.447266	68021.992188
826.669922	68964.976563
824.892578	69399.984375
823.113281	70561.539063
821.333984	71725.390625
819.554688	73477.460938
817.775391	75418.406250
815.996094	77371.148438
814.214844	80524.984375
812.435547	84945.132813
810.654297	90154.953125
808.871094	97369.148438
807.089844	107258.421875
805.306641	117767.570313
803.525391	128995.781250
801.742188	136786.968750
799.958984	140840.593750
798.173828	138245.546875
796.390625	129960.281250
794.605469	119598.390625
792.820313	108655.562500
791.035156	99064.460938
789.248047	91556.351563
787.462891	85425.890625
785.675781	81583.132813
783.888672	78192.500000
782.101563	75887.320313
780.314453	74515.859375
778.525391	72338.289063
776.736328	71601.375000
774.947266	70553.132813
773.158203	70189.953125
771.369141	69402.281250
769.578125	68591.210938
767.789063	68001.085938
765.998047	67550.820313
764.207031	67099.343750
762.414063	67020.617188
760.623047	66597.343750
758.830078	66449.015625
757.037109	66145.960938
755.244141	65833.273438
753.451172	65512.359375
751.656250	65415.941406
749.863281	65354.386719
748.068359	64516.988281
746.271484	64596.308594
744.476563	64470.914063
742.681641	64372.015625
740.884766	64096.410156
739.087891	64204.953125
737.291016	64388.566406
735.494141	64469.175781
733.695313	64029.683594
731.896484	64153.425781
730.097656	64207.609375
728.298828	64093.621094
726.500000	63758.777344
724.701172	64047.746094
722.900391	64019.953125
721.099609	63836.667969
719.298828	64097.656250
717.496094	64164.230469
715.695313	64087.859375
713.892578	64374.968750
712.089844	64424.785156
710.287109	64708.910156
708.484375	64854.281250
706.679688	65012.054688
704.876953	64839.960938
703.072266	65140.359375
701.267578	65529.269531
699.460938	65569.031250
697.656250	66001.976563
695.849609	66019.468750
694.042969	66501.937500
692.236328	66459.804688
690.429688	66354.054688
688.621094	66588.570313
686.812500	66717.890625
685.005859	67176.156250
683.195313	67549.914063
681.386719	67444.023438
679.578125	67182.070313
677.767578	67479.601563
675.957031	67908.187500
674.146484	68227.515625
672.333984	68524.609375
670.523438	68451.734375
668.710938	69074.257813
666.898438	69313.031250
665.085938	69188.992188
663.273438	69653.750000
661.458984	69849.492188
659.644531	70180.210938
657.830078	70446.015625
656.015625	70520.218750
654.201172	70594.375000
652.384766	71310.179688
650.570313	71239.578125
648.753906	71414.000000
646.935547	71769.984375
645.119141	71810.757813
643.300781	72489.726563
641.484375	72423.046875
639.666016	72693.242188
637.847656	72915.195313
636.027344	73392.671875
634.208984	73336.828125
632.388672	73620.296875
630.568359	74058.835938
628.748047	74114.085938
626.925781	74452.109375
625.105469	74975.257813
623.283203	75403.492188
621.460938	75511.882813
619.636719	76163.375000
617.814453	75860.156250
615.990234	76981.531250
614.167969	76678.257813
612.343750	77319.312500
610.517578	77831.296875
608.693359	78000.601563
606.867188	78338.273438
605.041016	79086.554688
603.214844	79132.250000
601.388672	79754.109375
599.562500	80158.132813
597.734375	80652.257813
595.906250	80077.984375
594.078125	80942.468750
592.250000	81270.664063
590.419922	81464.765625
588.591797	82146.617188
586.761719	82258.460938
584.931641	82857.875000
583.099609	83271.304688
581.269531	83699.562500
579.437500	83810.937500
577.605469	84642.835938
575.773438	84410.117188
573.941406	85124.195313
572.107422	85769.765625
570.273438	86355.046875
568.439453	86043.070313
566.605469	86865.171875
564.771484	87147.312500
562.935547	87776.718750
561.101563	88292.796875
559.265625	88345.648438
557.427734	89088.718750
555.591797	89193.085938
553.753906	90195.562500
551.917969	90762.210938
550.080078	91302.765625
548.240234	92075.632813
546.402344	92056.828125
544.562500	92644.304688
542.724609	91765.085938
540.884766	90890.328125
539.042969	90284.921875
537.203125	88570.156250
535.361328	86845.265625
533.519531	85418.437500
531.677734	84487.632813
529.835938	83038.859375
527.994141	82165.953125
526.150391	81628.453125
524.306641	80479.585938
522.462891	79809.804688
520.619141	79045.437500
518.773438	78953.570313
516.927734	78340.101563
515.082031	78500.375000
513.236328	78395.132813
511.390625	78296.695313
509.542969	77697.421875
507.697266	77729.101563
505.849609	77754.000000
504.000000	77676.062500
502.152344	78772.140625
500.302734	78562.835938
498.455078	78586.156250
496.605469	78766.242188
494.753906	78953.000000
492.904297	78549.273438
491.052734	78367.234375
489.203125	78155.570313
487.351563	77730.664063
485.498047	77779.734375
483.646484	77040.640625
481.792969	77155.945313
479.939453	77129.554688
478.085938	76756.562500
476.232422	76817.898438
474.376953	76774.062500
472.523438	76615.671875
470.667969	76879.109375
468.812500	76626.460938
466.955078	76465.500000
465.099609	76102.617188
463.242188	76501.890625
461.384766	76388.156250
459.527344	75647.375000
457.667969	76055.882813
455.810547	75823.937500
453.951172	75770.953125
452.091797	75513.617188
450.232422	75486.250000
448.371094	75595.968750
446.511719	75428.851563
444.650391	75232.250000
442.789063	75002.148438
440.927734	74903.734375
439.064453	74589.218750
437.201172	74625.148438
435.337891	74508.078125
433.474609	74271.656250
431.611328	74298.226563
429.748047	74492.398438
427.882813	73844.531250
426.017578	73802.804688
424.152344	73908.492188
422.285156	73697.945313
420.419922	73483.460938
418.552734	73816.804688
416.685547	73354.679688
414.818359	73686.554688
412.949219	73697.085938
411.082031	74014.007813
409.212891	74049.867188
407.343750	74329.109375
405.472656	74622.937500
403.603516	75363.140625
401.732422	74639.492188
399.861328	74896.960938
397.990234	74653.328125
396.119141	74526.000000
394.246094	73598.843750
392.375000	72670.750000
390.501953	72482.531250
388.628906	72399.812500
386.753906	72362.492188
384.880859	71800.960938
383.005859	71493.054688
381.130859	71262.609375
379.253906	71741.429688
377.378906	71219.156250
375.501953	71383.304688
373.626953	70688.156250
371.748047	70839.031250
369.871094	70356.015625
367.994141	70601.398438
366.115234	70179.859375
364.236328	70051.257813
362.357422	70305.843750
360.478516	70022.960938
358.597656	69891.796875
356.716797	69805.890625
354.835938	69564.500000
352.955078	69747.132813
351.074219	68967.765625
349.191406	68965.804688
347.308594	68901.421875
345.425781	69070.742188
343.542969	68828.476563
341.658203	69041.523438
339.775391	68678.617188
337.890625	68715.164063
336.005859	68241.078125
334.119141	68570.734375
332.234375	67978.898438
330.347656	68260.734375
328.460938	68478.843750
326.574219	68310.015625
324.685547	68120.062500
322.798828	67902.382813
320.910156	67769.523438
319.021484	67620.835938
317.132813	67358.398438
315.242188	67750.976563
313.351563	67467.460938
311.460938	67377.140625
309.570313	67450.796875
307.679688	67113.328125
305.787109	67373.343750
303.896484	67509.039063
302.003906	66974.937500
300.111328	67076.320313
298.216797	67016.554688
296.322266	67119.195313
294.429688	66924.820313
292.535156	66713.382813
290.638672	66515.218750
288.744141	66955.500000
286.847656	66868.132813
284.951172	67039.187500
283.054688	67016.414063
281.158203	67175.492188
279.259766	67343.718750
277.361328	67168.085938
275.462891	67280.921875
273.564453	67130.382813
271.666016	67240.539063
269.765625	67473.023438
267.865234	67581.726563
265.964844	68231.015625
264.064453	67630.632813
262.162109	67722.125000
260.261719	68248.679688
258.359375	68226.953125
256.457031	68147.421875
254.552734	68635.421875
252.650391	68677.968750
250.746094	68629.882813
248.841797	69147.632813
246.937500	68997.085938
245.031250	69329.492188
243.126953	70139.289063
241.220703	70165.671875
239.314453	70244.492188
237.406250	70378.335938
235.500000	70540.960938
233.591797	71352.179688
231.683594	71038.906250
229.775391	71392.500000
227.865234	71996.062500
225.957031	72615.062500
224.046875	72805.734375
222.136719	72839.265625
220.226563	73125.312500
218.314453	73167.906250
216.402344	73840.867188
214.490234	74361.835938
212.578125	74540.070313
210.666016	74754.820313
208.751953	74940.710938
206.839844	76300.968750
204.925781	76709.773438
203.009766	77294.671875
201.095703	77434.117188
