#Wave		#Intensity
4001.644531	-14.150218
4000.500000	79.383202
3999.354492	1.966823
3998.209961	14.065736
3997.064453	-37.150631
3995.918945	88.396896
3994.772461	128.792694
3993.626953	5.548829
3992.480469	80.810204
3991.333984	-20.602736
3990.187500	82.948318
3989.040039	68.736641
3987.893555	-8.689929
3986.746094	-42.521091
3985.598633	43.470394
3984.451172	5.256339
3983.302734	-50.379562
3982.154297	2.862232
3981.006836	108.317703
3979.857422	0.412782
3978.708984	64.454453
3977.560547	69.711250
3976.411133	24.918444
3975.261719	-0.296467
3974.112305	-79.881599
3972.961914	7.966649
3971.811523	91.421463
3970.662109	98.760811
3969.511719	125.642769
3968.360352	78.633324
3967.209961	109.827637
3966.058594	38.922287
3964.907227	-47.169975
3963.755859	66.493103
3962.604492	69.398712
3961.452148	163.442612
3960.299805	70.832520
3959.147461	97.564163
3957.995117	48.357143
3956.841797	144.457031
3955.689453	168.956039
3954.536133	63.364220
3953.382813	59.670113
3952.228516	155.651489
3951.075195	128.085678
3949.920898	16.035385
3948.766602	62.123001
3947.612305	-6.586915
3946.458008	-23.321058
3945.302734	33.539577
3944.147461	-28.666048
3942.992188	13.006272
3941.836914	41.671635
3940.680664	61.664833
3939.525391	-4.867722
3938.369141	45.377708
3937.211914	106.404861
3936.055664	35.548203
3934.898438	40.346516
3933.742188	8.400406
3932.584961	127.677574
3931.426758	106.509171
3930.269531	5.436502
3929.111328	107.347893
3927.953125	45.150776
3926.794922	41.241741
3925.636719	26.535196
3924.477539	119.701256
3923.319336	115.753265
3922.160156	-0.350496
3921.000000	45.304111
3919.840820	21.943123
3918.680664	69.714958
3917.520508	-24.777571
3916.360352	154.406799
3915.200195	-84.423470
3914.040039	21.455576
3912.878906	75.603142
3911.717773	17.759533
3910.556641	71.871864
3909.394531	128.109406
3908.233398	50.896599
3907.071289	-0.475974
3905.909180	109.499603
3904.746094	142.000412
3903.583984	28.256069
3902.420898	90.844742
3901.257813	108.261909
3900.094727	5.311376
3898.931641	44.211494
3897.767578	-58.702503
3896.603516	31.733343
3895.439453	14.749351
3894.275391	102.977448
3893.111328	133.202881
3891.946289	15.309170
3890.781250	86.301147
3889.616211	-5.805721
3888.451172	75.877319
3887.285156	148.945206
3886.119141	11.826607
3884.953125	33.410275
3883.787109	108.571053
3882.620117	63.677292
3881.454102	31.650988
3880.287109	83.186516
3879.120117	151.833664
3877.952148	-8.706730
3876.785156	23.519604
3875.617188	42.883759
3874.449219	-19.102310
3873.281250	105.115685
3872.112305	103.042030
3870.944336	28.227701
3869.775391	-65.813423
3868.606445	15.531707
3867.436523	113.947052
3866.267578	2.825671
3865.097656	139.668945
3863.927734	-33.395664
3862.757813	-31.206200
3861.587891	0.883652
3860.416992	11.600304
3859.246094	101.316116
3858.075195	90.652023
3856.904297	-52.354317
3855.732422	60.786934
3854.560547	7.448876
3853.388672	-65.073494
3852.216797	135.446960
3851.044922	-39.444061
3849.872070	43.720325
3848.699219	77.818840
3847.526367	45.828133
3846.353516	62.858368
3845.179688	-33.042793
3844.005859	64.937233
3842.832031	-7.507629
3841.658203	-45.858521
3840.484375	22.253036
3839.309570	-16.095287
3838.134766	-65.073807
3836.959961	20.017260
3835.785156	36.995110
3834.609375	160.317291
3833.434570	-33.283150
3832.258789	149.536316
3831.082031	19.781332
3829.906250	57.984558
3828.729492	6.917428
3827.552734	13.233622
3826.375977	-16.568260
3825.199219	36.470829
3824.021484	127.711967
3822.844727	63.928051
3821.666992	-25.307014
3820.489258	-65.697449
3819.310547	-4.221049
3818.131836	-25.510254
3816.954102	14.719501
3815.774414	21.000998
3814.595703	1.833309
3813.416992	48.390244
3812.237305	75.852440
3811.057617	29.130434
3809.877930	71.413986
3808.697266	-91.805733
3807.516602	-32.574223
3806.336914	7.574716
3805.155273	109.107910
3803.974609	-47.653503
3802.792969	136.391403
3801.612305	-11.855498
3800.430664	11.320730
3799.248047	70.447487
3798.066406	-75.593140
3796.883789	8.899135
3795.701172	95.473297
3794.518555	86.897224
3793.335938	-6.209170
3792.152344	-42.232647
3790.968750	54.845982
3789.785156	67.402016
3788.601563	58.835167
3787.417969	109.388885
3786.233398	3.711793
3785.048828	-11.171779
3783.864258	43.585384
3782.678711	54.016666
3781.494141	-9.385964
3780.308594	28.467405
3779.123047	-30.690157
3777.937500	30.342810
3776.750977	-64.626869
3775.564453	-71.048515
3774.377930	-79.575386
3773.191406	86.753983
3772.004883	-14.475162
3770.817383	8.580621
3769.629883	33.733253
3768.442383	65.191765
3767.254883	35.602184
3766.066406	69.153419
3764.878906	35.366489
3763.690430	54.180901
3762.500977	3.585225
3761.312500	7.679579
3760.123047	-7.147789
3758.933594	118.862549
3757.744141	53.582699
3756.554688	-7.470449
3755.364258	13.431551
3754.173828	36.426540
3752.983398	61.513340
3751.792969	-16.290192
3750.602539	-26.888802
3749.411133	80.053383
3748.219727	10.685909
3747.028320	44.150181
3745.835938	67.114830
3744.644531	-10.598608
3743.452148	56.404221
3742.259766	81.452805
3741.067383	1.686832
3739.874023	116.855011
3738.680664	68.544388
3737.487305	154.329956
3736.293945	162.585770
3735.100586	-17.636141
3733.906250	26.245468
3732.711914	42.897713
3731.517578	82.568192
3730.323242	69.909515
3729.127930	80.271729
3727.932617	42.518967
3726.737305	138.634415
3725.541992	-9.938536
3724.345703	33.887215
3723.150391	106.961731
3721.954102	44.167671
3720.757813	190.348907
3719.560547	46.090595
3718.364258	165.066513
3717.166992	106.491600
3715.969727	139.809830
3714.771484	22.813143
3713.574219	131.275894
3712.375977	212.571960
3711.177734	53.904350
3709.979492	76.779915
3708.780273	103.820442
3707.582031	153.789764
3706.382813	132.857956
3705.183594	114.020439
3703.983398	122.284760
3702.784180	107.627396
3701.583984	199.224991
3700.383789	138.739273
3699.182617	157.413589
3697.982422	236.463928
3696.781250	153.112106
3695.580078	194.674118
3694.378906	167.551117
3693.177734	221.582733
3691.975586	217.351212
3690.773438	294.235748
3689.571289	198.502762
3688.369141	271.208160
3687.166016	287.766235
3685.962891	235.738083
3684.759766	187.887405
3683.556641	306.254242
3682.352539	218.948471
3681.149414	331.039978
3679.945313	299.827057
3678.740234	351.665466
3677.536133	314.238617
3676.331055	376.435394
3675.126953	372.218750
3673.920898	403.271240
3672.715820	430.166229
3671.510742	411.434204
3670.304688	593.813721
3669.098633	579.209290
3667.891602	417.470581
3666.685547	450.566589
3665.478516	506.441711
3664.271484	427.665497
3663.064453	512.521667
3661.857422	518.669434
3660.649414	524.818237
3659.441406	613.756226
3658.233398	557.809875
3657.025391	559.817688
3655.816406	632.159424
3654.607422	570.044556
3653.398438	714.735779
3652.189453	710.521667
3650.980469	683.574585
3649.770508	728.973511
3648.560547	702.038879
3647.350586	689.578369
3646.139648	642.012695
3644.929688	759.674561
3643.718750	782.319214
3642.507813	753.350098
3641.295898	693.435974
3640.084961	765.614014
3638.873047	810.947144
3637.661133	786.131714
3636.449219	707.706055
3635.236328	759.219788
3634.023438	790.101013
3632.810547	878.687988
3631.597656	831.228760
3630.384766	781.729614
3629.170898	969.161804
3627.957031	841.393311
3626.743164	1004.038269
3625.529297	1008.088257
3624.314453	925.681458
3623.099609	859.773682
3621.884766	839.164429
3620.669922	828.853088
3619.454102	913.170898
3618.239258	956.327454
3617.023438	1026.202393
3615.806641	1032.323364
3614.590820	1083.664795
3613.374023	943.868530
3612.157227	1038.362549
3610.940430	1005.456970
3609.723633	997.213989
3608.505859	995.138428
3607.288086	880.142944
3606.070313	1118.270142
3604.852539	1044.348999
3603.633789	1079.214966
3602.415039	1050.470825
3601.196289	1136.609375
3599.977539	1029.939453
3598.758789	1001.230042
3597.539063	1056.588501
3596.319336	1210.314575
3595.099609	1154.956421
3593.878906	1005.371887
3592.659180	1156.982178
3591.438477	1150.830933
3590.217773	1109.872681
3588.996094	1132.402954
3587.775391	1050.529907
3586.553711	1109.908691
3585.332031	1324.782104
3584.109375	1234.746582
3582.887695	1193.838013
3581.665039	1191.805664
3580.442383	1236.805664
3579.219727	1240.905518
3577.996094	1310.413208
3576.773438	1236.848755
3575.549805	1267.517334
3574.325195	1271.621948
3573.101563	1347.212158
3571.876953	1318.634399
3570.652344	1339.069824
3569.427734	1373.789551
3568.203125	1322.782471
3566.977539	1302.405884
3565.752930	1455.448853
3564.526367	1400.386719
3563.300781	1402.449585
3562.075195	1469.761597
3560.848633	1363.772705
3559.622070	1494.257446
3558.395508	1496.314209
3557.167969	1361.866211
3555.940430	1551.362793
3554.712891	1457.694458
3553.485352	1341.665405
3552.257813	1496.458130
3551.029297	1492.426147
3549.800781	1516.890137
3548.572266	1559.661499
3547.343750	1543.422729
3546.114258	1588.213989
3544.884766	1547.579468
3543.655273	1645.223511
3542.425781	1649.322632
3541.195313	1572.125610
3539.965820	1610.788452
3538.734375	1523.476563
3537.503906	1621.049438
3536.273438	1600.794067
3535.041992	1700.353027
3533.810547	1651.675293
3532.579102	1732.925781
3531.346680	1810.090576
3530.115234	1674.180420
3528.882813	1712.789185
3527.650391	1889.308594
3526.416992	1721.025024
3525.184570	1887.344727
3523.951172	1887.381958
3522.717773	1852.967529
3521.483398	1899.624756
3520.250000	1844.967163
3519.015625	1822.743896
3517.781250	1792.430786
3516.545898	1962.592041
3515.311523	1995.028320
3514.076172	1938.396973
3512.840820	1982.974609
3511.605469	1825.207397
3510.369141	1966.897095
3509.133789	2068.084229
3507.897461	1999.375244
3506.660156	2029.763672
3505.423828	2033.864014
3504.186523	2058.177002
3502.949219	2013.782349
3501.711914	2098.703857
3500.474609	2001.806641
3499.236328	2242.207275
3497.998047	2230.129395
3496.759766	2161.533936
3495.521484	2157.555420
3494.282227	2296.859131
3493.042969	2133.472168
3491.803711	2157.751465
3490.564453	2226.394775
3489.324219	2204.275635
3488.084961	2224.504639
3486.844727	2262.870361
3485.603516	2258.904297
3484.363281	2289.195313
3483.122070	2242.924805
3481.880859	2206.746094
3480.639648	2214.887207
3479.397461	2343.834717
3478.156250	2243.248291
3476.914063	2327.868408
3475.671875	2325.931152
3474.428711	2309.914551
3473.186523	2390.459717
3471.943359	2289.974854
3470.700195	2430.822510
3469.456055	2430.893555
3468.212891	2364.635742
3466.968750	2398.887939
3465.724609	2567.750244
3464.479492	2531.647217
3463.235352	2457.398193
3461.990234	2471.537842
3460.745117	2483.666992
3459.499023	2596.163086
3458.253906	2546.052734
3457.007813	2566.196045
3455.761719	2532.166260
3454.515625	2514.198975
3453.268555	2560.416748
3452.021484	2757.000488
3450.775391	2550.565918
3449.527344	2596.759521
3448.280273	2600.853271
3447.032227	2624.985596
3445.784180	2550.954346
3444.536133	2781.381348
3443.287109	2677.318115
3442.039063	2711.437744
3440.790039	2683.495605
3439.541016	2611.537842
3438.291016	2663.667480
3437.041992	2705.776611
3435.791992	2699.869629
3434.541992	2747.961182
3433.291016	2626.087646
3432.041016	2730.152344
3430.790039	2626.320801
3429.539063	2826.269775
3428.287109	2744.442139
3427.036133	2610.710693
3425.784180	2726.677002
3424.532227	2748.753174
3423.280273	2738.881104
3422.027344	2826.820801
3420.774414	2661.283691
3419.521484	2783.128418
3418.268555	2515.927490
3417.014648	2693.605225
3415.761719	2530.221924
3414.507813	2632.071777
3413.252930	2753.820068
3411.999023	2771.887451
3410.744141	2764.047607
3409.489258	2678.514893
3408.234375	2716.512939
3406.978516	2844.116211
3405.723633	2748.667969
3404.467773	2643.304932
3403.210938	2691.242676
3401.955078	2769.012939
3400.698242	2619.942383
3399.441406	2747.432617
3398.184570	2652.124756
3396.927734	2721.898926
3395.669922	2759.840088
3394.412109	2740.125000
3393.154297	2742.280029
3391.896484	2627.205078
3390.637695	2649.251221
3389.378906	2677.250000
3388.120117	2729.070313
3386.861328	2655.788086
3385.601563	2771.120605
3384.341797	2662.138428
3383.082031	2723.852051
3381.822266	2587.148438
3380.561523	2527.859131
3379.300781	2678.814453
3378.040039	2677.035889
3376.779297	2667.330322
3375.517578	2657.631104
3374.256836	2649.917969
3372.995117	2606.546875
3371.732422	2565.175293
3370.470703	2549.568115
3369.208008	2702.287109
3367.945313	2413.447754
3366.682617	2635.418213
3365.418945	2568.362305
3364.155273	2455.823486
3362.891602	2606.446289
3361.627930	2565.152344
3360.363281	2616.822510
3359.099609	2482.616943
3357.834961	2605.452393
3356.569336	2540.480957
3355.304688	2568.410400
3354.039063	2552.865967
3352.773438	2570.909912
3351.507813	2519.825195
3350.241211	2543.795898
3348.975586	2569.732910
3347.708984	2583.818848
3346.442383	2481.467773
3345.174805	2523.192139
3343.907227	2480.076416
3342.639648	2608.570801
3341.372070	2460.944092
3340.104492	2557.851074
3338.835938	2359.042725
3337.567383	2603.748291
3336.298828	2481.857178
3335.029297	2492.010254
3333.760742	2502.159668
3332.491211	2612.743408
3331.221680	2520.484375
3329.951172	2388.890137
3328.681641	2381.343994
3327.411133	2507.615723
3326.139648	2604.329834
3324.869141	2423.647705
3323.597656	2368.906250
3322.327148	2530.483643
3321.054688	2340.094238
3319.783203	2474.100342
3318.510742	2391.883789
3317.238281	2427.590332
3315.965820	2284.517090
3314.693359	2333.981201
3313.419922	2428.594727
3312.146484	2493.722900
3310.873047	2443.011475
3309.599609	2355.030762
3308.325195	2355.386230
3307.050781	2310.619629
3305.776367	2418.867432
3304.501953	2223.101563
3303.226563	2537.205322
3301.951172	2433.632568
3300.675781	2406.539551
3299.400391	2459.802490
3298.124023	2415.084473
3296.847656	2333.165771
3295.571289	2313.951172
3294.294922	2339.781738
3293.017578	2373.435303
3291.740234	2410.991943
3290.462891	2333.071289
3289.185547	2425.408691
3287.907227	2382.730469
3286.628906	2408.525635
3285.350586	2412.801270
3284.072266	2442.492188
3282.792969	2345.113525
3281.513672	2351.356445
3280.234375	2449.436768
3278.955078	2363.836670
3277.674805	2373.981689
3276.394531	2374.359375
3275.114258	2257.584229
3273.833984	2338.024170
3272.552734	2512.121582
3271.272461	2315.380371
3269.990234	2415.277832
3268.708984	2349.328369
3267.426758	2427.729004
3266.145508	2527.548584
3264.862305	2395.333496
3263.580078	2423.002930
3262.296875	2285.012939
3261.014648	2349.714600
3259.731445	2278.027588
3258.447266	2331.022217
3257.164063	2409.311768
3255.879883	2407.747314
3254.595703	2269.921631
3253.310547	2402.676025
3252.026367	2405.006348
3250.741211	2255.589844
3249.456055	2357.150146
3248.169922	2312.817383
3246.884766	2425.994873
3245.598633	2266.970947
3244.312500	2211.019775
3243.025391	2312.495361
3241.739258	2305.130127
3240.452148	2214.240479
3239.165039	2212.724609
3237.876953	2374.319336
3236.589844	2320.356445
3235.301758	2252.827637
3234.013672	2262.951660
3232.724609	2364.266602
3231.436523	2306.468018
3230.147461	2392.219971
3228.857422	2140.522949
3227.568359	2323.214355
3226.278320	2197.625244
3224.989258	2384.112549
3223.698242	2196.554932
3222.408203	2251.233887
3221.117188	2257.468994
3219.826172	2182.365479
3218.535156	2209.909912
3217.244141	2196.791260
3215.952148	2232.065674
3214.660156	2211.208252
3213.368164	2236.792480
3212.076172	2208.204834
3210.783203	2158.354736
3209.490234	2234.209961
3208.197266	2149.575439
3206.903320	2167.417236
3205.610352	2098.287842
3204.316406	2154.775391
3203.022461	2226.695801
3201.727539	2001.152222
3200.432617	2102.041016
3199.137695	1996.308594
3197.842773	2133.834717
3196.547852	2028.136597
3195.251953	1963.000488
3193.956055	1930.685791
3192.660156	1823.158691
3191.363281	1958.659424
3190.067383	2005.414429
3188.770508	1973.116211
3187.472656	1896.502075
3186.175781	1916.265259
3184.877930	1928.314453
3183.580078	1790.112671
3182.282227	1765.589478
3180.983398	1846.979248
3179.684570	1909.086182
3178.385742	1784.466797
3177.086914	1792.677856
3175.788086	1745.088501
3174.488281	1789.854492
3173.188477	1774.980103
3171.887695	1633.199219
3170.587891	1837.531372
3169.287109	1665.037231
3167.986328	1828.927002
3166.685547	1535.447998
3165.383789	1620.535522
3164.082031	1726.717529
3162.780273	1727.239502
3161.478516	1468.563721
3160.175781	1607.347168
3158.873047	1600.213989
3157.570313	1547.030518
3156.267578	1555.258911
3154.963867	1607.601685
3153.660156	1533.350830
3152.356445	1539.659180
3151.052734	1440.527344
3149.748047	1410.434082
3148.443359	1570.065552
3147.138672	1415.421753
3145.833984	1496.451538
3144.528320	1242.291016
3143.222656	1340.556030
3141.916992	1256.908813
3140.610352	1341.734375
3139.304688	1328.925659
3137.998047	1268.287964
3136.691406	1211.498901
3135.383789	1271.402222
3134.076172	1132.406494
3132.768555	1184.653076
3131.460938	1183.355957
3130.153320	1185.880859
3128.844727	1261.015137
3127.536133	1118.331421
3126.227539	1204.908569
3124.917969	1113.851318
3123.608398	998.007263
3122.298828	1061.648682
3120.989258	978.303528
3119.678711	1085.812988
3118.369141	1074.991821
3117.057617	1094.695923
3115.747070	1017.127380
3114.436523	888.105164
3113.125000	871.609802
3111.813477	904.676514
3110.500977	932.013672
3109.189453	883.126709
3107.876953	895.216248
3106.564453	943.486877
3105.250977	854.636902
3103.937500	809.608093
3102.625000	848.347290
3101.310547	1024.095215
3099.997070	927.683289
3098.682617	911.207581
3097.368164	812.951477
3096.053711	825.026794
3094.739258	707.810181
3093.423828	788.332520
3092.108398	728.182983
3090.792969	706.058960
3089.476563	742.837280
3088.160156	726.416260
3086.843750	683.413452
3085.527344	665.109192
3084.210938	684.777649
3082.893555	704.438538
3081.576172	779.121338
3080.257813	582.469238
3078.940430	647.660095
3077.622070	644.551147
3076.303711	639.546204
3074.984375	606.106079
3073.666016	572.676758
3072.346680	556.315674
3071.027344	545.643738
3069.707031	578.544922
3068.387695	649.310791
3067.067383	538.263855
3065.747070	484.055145
3064.425781	577.510864
3063.104492	460.861755
3061.783203	471.029388
3060.461914	450.923462
3059.140625	472.435089
3057.818359	435.315643
3056.496094	413.334473
3055.173828	483.986176
3053.850586	528.150879
3052.527344	387.117859
3051.204102	391.608093
3049.880859	394.206299
3048.556641	417.576447
3047.233398	388.067780
3045.909180	339.692383
3044.583984	438.552521
3043.259766	361.877838
3041.934570	388.999207
3040.608398	348.202545
3039.283203	394.172791
3037.957031	345.845795
3036.630859	354.092529
3035.304688	343.486176
3033.978516	334.766968
3032.651367	373.153595
3031.324219	385.151520
3029.997070	316.157135
3028.668945	341.340607
3027.341797	323.210602
3026.013672	212.853836
3024.684570	313.316986
3023.356445	349.765167
3022.027344	179.264709
3020.698242	315.407898
3019.368164	312.341675
3018.039063	247.229721
3016.708984	215.978134
3015.378906	252.395844
3014.047852	298.193665
3012.717773	210.585648
3011.386719	325.868469
3010.055664	211.995361
3008.723633	186.412018
3007.392578	202.135208
3006.060547	227.236023
3004.727539	128.477173
3003.395508	275.528259
3002.062500	199.304611
3000.729492	177.495529
2999.396484	105.067062
2998.062500	257.628265
2996.728516	254.560043
2995.394531	169.036987
2994.060547	222.191650
2992.725586	191.029297
2991.390625	216.063690
2990.055664	257.939331
2988.720703	157.513687
2987.384766	199.381821
2986.048828	166.375153
2984.712891	153.961426
2983.376953	223.861603
2982.040039	140.365845
2980.703125	144.789673
2979.366211	252.039108
2978.028320	65.773201
2976.690430	182.338242
2975.352539	175.533554
2974.014648	187.411133
2972.675781	120.835579
2971.336914	91.632721
2969.998047	101.648483
2968.659180	176.993698
2967.319336	164.589874
2965.979492	101.806992
2964.639648	53.971966
2963.299805	118.070137
2961.958984	100.086220
2960.618164	80.243011
2959.277344	148.022675
2957.935547	156.132599
2956.593750	85.971573
2955.251953	-23.289238
2953.910156	171.118698
2952.567383	65.605400
2951.225586	120.264900
2949.881836	91.128242
2948.539063	132.729553
2947.195313	77.544609
2945.852539	37.262920
2944.507813	136.513657
2943.164063	79.494530
2941.819336	72.703041
2940.474609	26.870541
2939.129883	64.698929
2937.784180	33.749798
2936.439453	123.584023
2935.093750	146.505234
2933.747070	145.270966
2932.401367	129.178452
2931.054688	49.966358
2929.708008	7.908036
2928.360352	25.253548
2927.013672	85.267166
2925.666016	35.800819
2924.318359	-0.664603
2922.969727	-3.736954
2921.621094	43.250935
2920.272461	25.337395
2918.923828	68.590530
2917.575195	87.735687
2916.225586	71.671829
2914.875977	172.306870
2913.525391	63.632545
2912.175781	19.802811
2910.825195	111.128059
2909.474609	-43.748455
2908.123047	-32.021267
2906.772461	27.802454
2905.420898	-45.582634
2904.069336	-6.126528
2902.716797	92.483063
2901.364258	22.820311
2900.011719	-15.395543
2898.659180	107.176071
2897.305664	-32.664036
2895.953125	41.830406
2894.599609	-5.601532
2893.245117	70.702492
2891.891602	93.434570
2890.537109	-5.668196
2889.181641	11.530903
2887.827148	56.397060
2886.471680	-57.404408
2885.116211	-5.167953
2883.760742	-72.816437
2882.405273	10.740970
2881.048828	61.084831
2879.692383	50.589401
2878.334961	43.781780
2876.978516	-18.293604
2875.621094	70.688683
2874.263672	3.104379
2872.905273	115.979591
2871.547852	15.274045
2870.189453	96.810966
2868.830078	113.911400
2867.471680	11.419596
2866.112305	89.225174
2864.752930	32.749783
2863.393555	77.420898
2862.033203	8.098134
2860.672852	58.266842
2859.312500	12.859400
2857.952148	-8.648856
2856.590820	-11.781144
2855.229492	-77.356049
2853.868164	35.199673
2852.505859	35.726315
2851.144531	-0.458923
2849.782227	80.813820
2848.418945	-10.411037
2847.056641	-61.246948
2845.693359	153.867294
2844.330078	18.667316
2842.965820	39.348877
2841.602539	-75.618217
2840.238281	-31.107103
2838.874023	68.351013
2837.508789	72.511696
2836.143555	-55.199963
2834.778320	46.029755
2833.413086	8.077559
2832.046875	3.086458
2830.681641	14.565104
2829.314453	2.251850
2827.948242	53.968643
2826.581055	61.767120
2825.214844	23.843449
2823.846680	106.601486
2822.479492	-15.405351
2821.111328	-53.297073
2819.743164	-21.741827
2818.375000	93.835091
2817.005859	2.969011
2815.636719	43.619713
2814.267578	-65.463531
2812.898438	57.324986
2811.528320	-26.171068
2810.158203	71.011765
2808.788086	71.462601
2807.416992	-8.345518
2806.046875	10.352484
2804.675781	7.161894
2803.303711	31.315374
2801.932617	-32.028206
2800.560547	13.985465
2799.188477	27.185085
2797.815430	-28.840086
2796.443359	-4.714610
2795.070313	-44.329067
2793.696289	-118.518433
2792.323242	18.450668
2790.949219	29.801647
2789.575195	6.577336
2788.201172	-20.278175
2786.826172	40.172009
2785.451172	24.226341
2784.076172	-0.805366
2782.701172	50.510479
2781.325195	3.672294
2779.949219	29.526384
2778.573242	9.954340
2777.196289	-27.773701
2775.819336	-25.540916
2774.442383	100.141464
2773.065430	24.292967
2771.687500	-13.417105
2770.309570	32.348537
2768.931641	36.370163
2767.553711	-59.365898
2766.174805	-26.318285
2764.795898	30.283163
2763.416992	-32.774448
2762.037109	38.300236
2760.657227	2.440715
2759.277344	69.852791
2757.897461	91.955414
2756.516602	-21.767437
2755.135742	11.203426
2753.754883	64.070885
2752.373047	13.756656
2750.991211	-7.588716
2749.609375	10.871929
2748.227539	29.322916
2746.844727	-67.972008
2745.461914	-42.284889
2744.079102	66.543198
2742.696289	72.308647
2741.312500	11.211967
2739.928711	49.500885
2738.544922	-29.634905
2737.160156	14.060528
2735.775391	-14.485888
2734.390625	-53.854717
2733.005859	65.616150
2731.620117	-42.328110
2730.234375	-27.550598
2728.848633	7.060259
2727.461914	3.783322
2726.076172	56.400467
2724.689453	54.913265
2723.301758	46.215260
2721.915039	-72.405312
2720.527344	55.846809
2719.138672	36.339050
2717.750977	-17.382042
2716.362305	-17.065903
2714.973633	24.653399
2713.584961	5.157453
2712.195313	90.041016
2710.806641	5.763991
2709.416016	-6.527543
2708.026367	17.152412
2706.635742	15.647170
2705.245117	10.544596
2703.854492	21.618616
2702.462891	34.483261
2701.072266	74.290596
2699.680664	-15.257934
2698.288086	47.887966
2696.896484	-57.786140
2695.503906	43.040089
2694.110352	39.716988
2692.717773	38.186916
2691.324219	-29.731741
2689.930664	8.213933
2688.537109	58.697033
2687.142578	-23.538298
2685.748047	62.783813
2684.353516	-3.292436
2682.958984	27.430456
2681.563477	-4.573391
2680.167969	44.047588
2678.771484	49.661545
2677.375977	73.177437
2675.979492	-14.321257
2674.583008	16.353701
2673.185547	-38.889748
2671.789063	-54.749321
2670.391602	31.366743
2668.993164	38.747498
2667.595703	-3.948801
2666.197266	26.674032
2664.798828	98.396301
2663.400391	95.025131
2662.000977	-44.148254
2660.601563	90.066368
2659.202148	108.125786
2657.801758	-30.974920
2656.401367	-16.474489
2655.000977	6.943487
2653.600586	5.362996
2652.199219	57.313290
2650.797852	3.981663
2649.396484	63.041462
2647.995117	84.625252
2646.592773	2.784987
2645.190430	24.367393
2643.787109	110.102150
2642.384766	76.410034
2640.981445	117.555817
2639.578125	-23.003420
2638.173828	71.567719
2636.769531	41.461681
2635.365234	-9.997323
2633.960938	-18.722372
2632.555664	120.251060
2631.150391	22.542429
2629.745117	115.199829
2628.339844	134.902222
2626.933594	12.348013
2625.527344	-5.274003
2624.121094	85.528854
2622.713867	76.779694
2621.306641	2.294515
2619.899414	78.824295
2618.492188	62.970360
2617.083984	61.325626
2615.675781	13.521782
2614.266602	45.606583
2612.858398	6.692526
2611.449219	-25.111452
2610.040039	-138.503738
2608.629883	39.005310
2607.220703	1.886845
2605.810547	-15.717981
2604.399414	58.850986
2602.989258	35.920372
2601.578125	20.083719
2600.166992	-41.806332
2598.754883	50.410023
2597.343750	61.133404
2595.930664	50.606133
2594.518555	36.540234
2593.106445	3.010788
2591.693359	1.340427
2590.280273	66.889626
2588.866211	-35.609573
2587.452148	52.904003
2586.038086	1.713065
2584.624023	44.222157
2583.208984	44.298332
2581.794922	56.739956
2580.378906	76.240952
2578.963867	30.382307
2577.547852	19.856609
2576.131836	-15.384583
2574.715820	-15.311240
2573.298828	-15.240402
2571.881836	106.574905
2570.464844	-0.993252
2569.047852	20.232380
2567.629883	97.876160
2566.211914	15.049074
2564.793945	23.912508
2563.375000	66.255119
2561.956055	50.432537
2560.537109	94.509705
2559.118164	13.514205
2557.698242	-26.949627
2556.278320	113.943077
2554.857422	40.025890
2553.437500	18.932457
2552.016602	25.998371
2550.595703	175.555344
2549.173828	13.731141
2547.752930	17.269272
2546.330078	38.385757
2544.908203	47.186115
2543.485352	85.857971
2542.063477	3.269868
2540.639648	13.821873
2539.216797	36.661770
2537.792969	156.075317
2536.369141	133.224319
2534.945313	115.645882
2533.520508	84.031723
2532.095703	59.446484
2530.670898	143.637970
2529.245117	45.377949
2527.819336	97.968384
2526.393555	83.909767
2524.967773	85.630806
2523.541016	138.174759
2522.114258	145.136551
2520.687500	71.504715
2519.260742	139.776810
2517.833008	59.165760
2516.405273	48.619049
2514.976563	150.107880
2513.547852	87.037285
2512.119141	92.232430
2510.690430	67.681870
2509.261719	60.629971
2507.832031	64.071144
2506.402344	167.169922
2504.971680	69.194397
2503.541016	65.633560
2502.110352	67.314072
2500.679688	65.496925
2499.248047	116.079834
2497.816406	53.126514
2496.384766	105.432617
2494.953125	183.900742
2493.520508	107.001335
2492.087891	68.519806
2490.655273	166.131943
2489.221680	59.621922
2487.788086	94.410637
2486.354492	148.362366
2484.919922	106.412132
2483.485352	90.619545
2482.050781	27.781712
2480.616211	79.951859
2479.180664	139.066742
2477.745117	64.058754
2476.309570	140.559738
2474.873047	62.095043
2473.437500	112.454048
2472.000000	70.563911
2470.563477	65.223061
2469.125977	68.579636
2467.688477	151.930542
2466.250977	73.542130
2464.812500	122.086014
2463.374023	28.087608
2461.935547	130.485397
2460.497070	60.840668
2459.057617	79.809380
2457.618164	67.508034
2456.177734	70.836243
2454.738281	110.616135
2453.297852	165.998718
2451.857422	98.150818
2450.416016	39.002296
2448.974609	144.662354
2447.533203	31.761099
2446.091797	92.293915
2444.649414	112.928223
2443.207031	88.488052
2441.764648	133.370148
2440.321289	76.012665
2438.877930	75.837791
2437.434570	96.442711
2435.990234	94.527779
2434.546875	87.417374
2433.101563	133.962601
2431.657227	80.119965
2430.211914	152.595139
2428.766602	150.658707
2427.321289	-8.657580
2425.875977	55.139194
2424.429688	110.264771
2422.983398	63.390377
2421.536133	125.399719
2420.089844	161.466080
2418.642578	81.782379
2417.194336	150.652115
2415.747070	83.084229
2414.298828	63.878372
2412.849609	58.485703
2411.401367	85.879807
2409.952148	71.853706
2408.502930	38.855995
2407.052734	102.447853
2405.603516	124.629234
2404.152344	67.498962
2402.703125	94.844322
2401.251953	142.855560
2399.800781	80.580032
2398.349609	144.073151
2396.898438	135.205765
2395.445313	97.068222
2393.994141	93.373398
2392.541016	124.101791
2391.087891	120.398651
2389.634766	97.769348
2388.181641	100.948769
2386.728516	81.767227
2385.275391	117.613640
2383.820313	17.633524
2382.365234	146.287811
2380.910156	13.686872
2379.455078	83.870743
2378.000000	107.645340
2376.544922	105.647141
2375.089844	89.910820
2373.632813	149.713928
2372.175781	101.359505
2370.718750	147.403915
2369.261719	75.044952
2367.804688	54.172977
2366.347656	77.897141
2364.888672	60.457626
2363.429688	-8.406503
2361.972656	-1.830679
2360.513672	9.881281
2359.054688	-0.686579
2357.593750	60.691269
2356.134766	12.435608
2354.673828	78.918633
2353.214844	128.253510
2351.753906	114.238220
2350.292969	67.712669
2348.832031	62.264999
2347.369141	-15.025769
2345.908203	-13.618441
2344.445313	88.668457
2342.984375	42.183247
2341.521484	58.954323
2340.058594	55.210293
2338.593750	116.388809
2337.130859	-17.189610
2335.667969	-17.506989
2334.203125	38.520061
2332.738281	142.322311
2331.273438	58.333870
2329.808594	49.460487
2328.343750	62.767845
2326.878906	-38.218410
2325.412109	-57.306019
2323.945313	58.313255
2322.478516	-11.932601
2321.011719	1.362910
2319.544922	48.732265
2318.078125	-4.439023
2316.611328	-71.217850
2315.142578	-3.432478
2313.673828	-75.297234
2312.205078	-4.137922
2310.736328	12.526795
2309.267578	-21.867653
2307.798828	25.413363
2306.328125	21.643850
2304.859375	5.968924
2303.388672	9.001781
2301.917969	149.728439
2300.447266	9.958710
2298.974609	-54.988720
2297.503906	-24.771208
2296.031250	7.130673
2294.560547	27.129648
2293.087891	42.024914
2291.615234	31.448498
2290.142578	44.635517
2288.667969	66.299896
2287.195313	-17.233019
2285.720703	-17.619864
2284.246094	-41.751057
2282.773438	10.424883
2281.296875	-25.572392
2279.822266	45.218689
2278.347656	2.446602
2276.871094	57.952209
2275.396484	30.435410
2273.919922	-20.781223
2272.443359	43.155315
2270.966797	39.351727
2269.488281	-43.998848
2268.011719	-83.322220
2266.533203	-93.871155
2265.056641	-14.770791
2263.578125	-59.155258
2262.099609	-46.037613
2260.619141	-10.951544
2259.140625	46.089775
2257.662109	-69.248856
2256.181641	-10.533094
2254.701172	-58.254639
2253.220703	83.180031
2251.740234	27.013103
2250.259766	28.260954
2248.777344	26.130848
2247.296875	83.058372
2245.814453	1.623585
2244.332031	29.855312
2242.849609	-34.676117
2241.367188	37.384773
2239.884766	-30.497166
2238.400391	38.159737
2236.917969	-36.438637
2235.433594	28.818737
2233.949219	-50.804176
2232.464844	-27.673584
2230.978516	-24.757534
2229.494141	16.871561
2228.009766	-22.300493
2226.523438	22.673286
2225.037109	-31.628431
2223.550781	13.325860
2222.064453	7.811560
2220.576172	-36.371819
2219.089844	-8.258327
2217.601563	56.815498
2216.115234	9.283628
2214.626953	32.326122
2213.138672	-37.019588
2211.648438	-55.961575
2210.160156	72.846992
2208.669922	-6.541526
2207.181641	14.794658
2205.691406	46.188168
2204.201172	55.758965
2202.710938	16.685036
2201.218750	39.669922
2199.728516	-22.859926
2198.236328	5.149285
2196.744141	-12.102886
2195.251953	37.671661
2193.759766	20.417025
2192.267578	23.266035
2190.775391	-49.241016
2189.281250	49.046173
2187.787109	25.101595
2186.294922	-10.549255
2184.800781	-1.011543
2183.304688	-9.880232
2181.810547	-13.729321
2180.316406	9.176205
2178.820313	-3.037041
2177.324219	53.283894
2175.828125	39.392677
2174.332031	40.542995
2172.835938	80.112289
2171.337891	41.167847
2169.841797	-56.204887
2168.343750	21.753635
2166.845703	7.877525
2165.347656	29.050339
2163.849609	11.838743
2162.351563	61.357738
2160.851563	9.120641
2159.353516	-11.414765
2157.853516	109.760307
2156.353516	125.878922
2154.853516	28.672764
2153.353516	113.108650
2151.851563	2.615668
2150.351563	-39.551273
2148.849609	-48.400974
2147.347656	50.960274
2145.845703	-64.428459
2144.343750	21.581034
2142.839844	37.677593
2141.337891	-56.017632
2139.833984	9.977989
2138.330078	60.981270
2136.826172	5.569855
2135.322266	-53.144421
2133.818359	-28.749920
2132.314453	25.538767
2130.808594	53.227364
2129.302734	-3.792362
2127.796875	18.908068
2126.291016	-8.202824
2124.785156	-43.602318
2123.279297	7.298708
2121.771484	0.112177
2120.263672	4.538453
2118.757813	-14.254811
2117.250000	3.434964
2115.740234	-30.271849
2114.232422	50.391933
2112.724609	-33.022808
2111.214844	42.637096
2109.705078	35.447994
2108.195313	1.764887
2106.685547	29.354874
2105.175781	8.927936
2103.664063	38.158478
2102.154297	-43.486351
2100.642578	-42.382118
2099.130859	0.070972
2097.619141	24.316050
2096.107422	7.217142
2094.595703	102.528664
2093.082031	12.702358
2091.570313	2.223695
2090.056641	34.700256
2088.542969	-33.587990
2087.029297	22.000338
2085.513672	-28.098156
2084.000000	-7.198293
2082.484375	49.999157
2080.968750	70.873535
2079.455078	52.147438
2077.937500	-22.648626
2076.421875	-14.965785
2074.906250	38.875984
2073.388672	38.300835
2071.873047	11.357965
2070.355469	43.740643
2068.837891	6.922938
2067.320313	14.588216
2065.800781	33.776356
2064.283203	66.126892
2062.763672	-16.754320
2061.244141	4.073350
2059.724609	29.827938
2058.205078	-13.516911
2056.685547	-12.439202
2055.164063	-36.026749
2053.644531	9.442021
2052.123047	23.662809
2050.601563	-16.351494
2049.080078	22.513144
2047.558594	49.863186
2046.035156	156.032211
2044.513672	58.554531
2042.990234	-25.750862
2041.466797	75.444603
2039.943359	-30.162529
2038.419922	131.696075
2036.896484	12.997973
2035.371094	107.543541
2033.847656	24.970354
2032.322266	29.313726
2030.796875	-17.152710
2029.271484	28.163347
2027.744141	35.780048
2026.218750	-5.745346
2024.691406	6.788244
2023.164063	52.062897
2021.636719	-33.637920
2020.109375	-3.102767
2018.582031	45.419357
2017.054688	8.851805
2015.525391	39.360199
2013.996094	10.985745
2012.468750	85.626091
2010.939453	80.139076
2009.408203	87.729057
2007.878906	-55.009125
2006.347656	58.792381
2004.818359	59.849991
2003.287109	7.019348
2001.755859	-13.136621
2000.224609	45.066921
1998.691406	-22.415092
1997.160156	-31.129925
1995.626953	20.517822
1994.093750	-7.772937
1992.560547	3.083751
1991.027344	51.433853
1989.494141	103.024948
1987.960938	14.445683
1986.425781	28.549917
1984.890625	34.504093
1983.355469	-39.347534
1981.820313	13.841001
1980.285156	19.796526
1978.750000	35.516376
1977.212891	39.839291
1975.675781	13.248100
1974.138672	-37.731293
1972.601563	-20.383291
1971.064453	65.250618
1969.527344	-24.721874
1967.988281	-33.390007
1966.451172	-76.178772
1964.912109	-5.221965
1963.373047	23.473974
1961.833984	53.783092
1960.292969	17.509476
1958.753906	18.589201
1957.212891	82.966850
1955.671875	-52.271248
1954.130859	7.229672
1952.589844	13.180806
1951.048828	9.400046
1949.505859	67.233971
1947.964844	-1.395281
1946.421875	1.315536
1944.878906	26.711535
1943.335938	43.998302
1941.792969	-18.086590
1940.248047	-7.272975
1938.705078	-33.700497
1937.160156	38.625759
1935.615234	41.333126
1934.070313	19.769762
1932.525391	-0.165382
1930.978516	-41.117653
1929.433594	81.272064
1927.886719	6.371503
1926.339844	44.651249
1924.792969	-15.663823
1923.246094	20.991978
1921.699219	-15.059305
1920.150391	-22.023062
1918.601563	58.214344
1917.052734	-60.153458
1915.503906	71.713142
1913.955078	-35.309601
1912.406250	-110.018066
1910.855469	-49.194035
1909.306641	-46.452579
1907.755859	36.911015
1906.205078	26.740099
1904.654297	127.787872
1903.101563	56.370693
1901.550781	55.873970
1899.998047	-52.543953
1898.447266	-3.090217
1896.894531	25.413311
1895.339844	-24.973526
1893.787109	37.325565
1892.234375	-54.876701
1890.679688	-56.945827
1889.125000	-60.620514
1887.570313	-32.128769
1886.015625	-50.273548
1884.460938	-34.651512
1882.906250	-35.105167
1881.349609	57.639648
1879.792969	20.221657
1878.236328	-5.936024
1876.679688	-7.992795
1875.123047	-56.606598
1873.566406	52.110287
1872.007813	34.000885
1870.449219	73.664352
1868.890625	57.166386
1867.332031	-29.893145
1865.773438	-89.654228
1864.214844	-25.940456
1862.654297	-76.055878
1861.093750	-36.404888
1859.533203	-7.983320
1857.972656	-64.472061
1856.412109	20.003660
1854.851563	43.599628
1853.289063	6.353496
1851.728516	-8.466467
1850.166016	-20.077463
1848.603516	62.715080
1847.039063	20.707121
1845.476563	79.473312
1843.914063	45.478790
1842.349609	49.867920
1840.785156	28.685112
1839.220703	52.257042
1837.656250	-8.853032
1836.091797	3.540940
1834.525391	11.141685
1832.958984	25.128607
1831.392578	42.305431
1829.826172	0.425846
1828.259766	12.819456
1826.693359	6.066362
1825.125000	50.359543
1823.558594	-12.206429
1821.990234	14.540035
1820.421875	36.496571
1818.853516	10.636094
1817.285156	91.545296
1815.714844	38.608105
1814.144531	36.663052
1812.576172	25.167307
1811.005859	-8.609578
1809.433594	2.199368
1807.863281	49.609535
1806.292969	9.493382
1804.720703	29.845943
1803.148438	7.251822
1801.576172	5.341405
1800.003906	57.487518
1798.431641	36.500721
1796.857422	7.580178
1795.285156	10.450923
1793.710938	-0.972632
1792.136719	-42.562458
1790.562500	6.373360
1788.986328	-27.256773
1787.412109	-10.080401
1785.835938	0.744909
1784.259766	33.780270
1782.683594	-17.261894
1781.107422	-6.431375
1779.531250	31.352173
1777.955078	-5.380720
1776.376953	-19.906424
1774.798828	8.360073
1773.220703	39.787197
1771.642578	39.526817
1770.064453	40.854107
1768.484375	103.930939
1766.906250	-60.955059
1765.326172	-2.623453
1763.746094	-26.590088
1762.166016	26.971954
1760.583984	75.770966
1759.003906	-6.693315
1757.421875	-2.166679
1755.841797	-26.090080
1754.259766	-49.999081
1752.675781	16.164696
1751.093750	-2.996517
1749.511719	-20.566895
1747.927734	45.561794
1746.343750	23.260851
1744.759766	-40.064186
1743.175781	43.397736
1741.591797	36.900043
1740.005859	43.028538
1738.421875	41.272816
1736.835938	-31.430656
1735.250000	22.012293
1733.664063	80.165642
1732.076172	70.541725
1730.490234	8.936734
1728.902344	67.069412
1727.316406	-35.445232
1725.728516	35.276367
1724.138672	5.229359
1722.550781	50.741127
1720.962891	61.621880
1719.373047	39.466747
1717.783203	23.616186
1716.193359	40.798965
1714.603516	83.133751
1713.013672	10.710164
1711.421875	54.614326
1709.830078	-14.621684
1708.240234	18.281742
1706.648438	44.894325
1705.054688	66.789825
1703.462891	47.862888
1701.871094	58.770454
1700.277344	19.461971
1698.683594	85.292717
1697.089844	28.749521
1695.496094	41.238403
1693.902344	63.134617
1692.306641	125.785103
1690.710938	16.010441
1689.117188	-7.530677
1687.521484	127.175934
1685.923828	47.243591
1684.328125	62.875389
1682.730469	98.859718
1681.134766	123.875740
1679.537109	98.805351
1677.939453	170.762573
1676.341797	128.493729
1674.742188	155.067017
1673.144531	192.579498
1671.544922	181.615784
1669.945313	178.476852
1668.345703	92.516968
1666.746094	51.908489
1665.144531	92.552902
1663.544922	101.948555
1661.943359	42.640835
1660.341797	111.377205
1658.740234	136.386673
1657.138672	67.760086
1655.535156	95.898941
1653.933594	63.195816
1652.330078	155.275009
1650.726563	91.399094
1649.123047	44.702850
1647.519531	55.697754
1645.914063	60.460640
1644.310547	79.247299
1642.705078	84.013397
1641.099609	15.590565
1639.494141	76.428268
1637.888672	82.763824
1636.281250	114.003204
1634.675781	61.210957
1633.068359	86.229294
1631.460938	67.693039
1629.853516	91.154922
1628.244141	144.152054
1626.636719	120.967422
1625.027344	60.500931
1623.417969	71.536278
1621.808594	45.290520
1620.199219	118.457985
1618.589844	93.776245
1616.978516	101.712112
1615.369141	49.116386
1613.757813	63.275505
1612.146484	29.338614
1610.535156	18.688044
1608.921875	29.759651
1607.310547	71.841164
1605.697266	86.007668
1604.083984	27.330399
1602.470703	49.258568
1600.857422	80.478470
1599.242188	26.501915
1597.628906	73.209824
1596.013672	71.908318
1594.398438	30.366817
1592.783203	13.609260
1591.167969	117.552399
1589.550781	18.806223
1587.935547	104.156128
1586.318359	31.751795
1584.701172	7.308917
1583.083984	40.071636
1581.466797	71.280914
1579.847656	-22.664627
1578.230469	45.628464
1576.611328	67.567520
1574.992188	-18.582241
1573.373047	32.703098
1571.751953	57.735023
1570.132813	-17.541065
1568.511719	52.242432
1566.890625	34.081890
1565.269531	23.644793
1563.648438	96.476059
1562.027344	73.709229
1560.404297	18.593332
1558.783203	-24.168144
1557.160156	-17.608391
1555.537109	7.436889
1553.912109	34.017773
1552.289063	57.512993
1550.664063	-14.429079
1549.041016	66.017776
1547.416016	4.885009
1545.791016	89.920998
1544.164063	-17.318422
1542.539063	0.040774
1540.912109	-80.989807
1539.287109	-3.670331
1537.660156	21.376192
1536.033203	-4.282818
1534.404297	-46.821091
1532.777344	61.164246
1531.148438	0.215875
1529.519531	5.307325
1527.890625	16.541126
1526.261719	20.103308
1524.632813	-20.820347
1523.001953	102.397255
1521.373047	-4.455847
1519.742188	38.992947
1518.111328	71.698814
1516.478516	-18.204672
1514.847656	16.042530
1513.214844	50.281944
1511.583984	1.806658
1509.951172	-2.235748
1508.318359	27.409416
1506.683594	-27.134970
1505.050781	131.058167
1503.416016	67.346046
1501.783203	-11.632126
1500.148438	-46.220150
1498.511719	36.946964
1496.876953	72.693939
1495.242188	38.126102
1493.605469	23.443882
1491.968750	-0.393377
1490.332031	-1.304021
1488.695313	-14.425880
1487.058594	-15.322688
1485.419922	-10.106842
1483.781250	-27.779972
1482.142578	-22.553026
1480.503906	-17.323116
1478.865234	-85.299110
1477.226563	-5.329302
1475.585938	-54.973068
1473.945313	-23.806660
1472.304688	-7.887221
1470.664063	18.695755
1469.023438	68.121941
1467.380859	26.156807
1465.740234	14.665733
1464.097656	-18.126591
1462.455078	-11.328076
1460.812500	12.211164
1459.167969	-47.927700
1457.525391	44.066338
1455.880859	-28.209675
1454.236328	-15.307759
1452.591797	-26.727570
1450.947266	-36.617809
1449.302734	44.668118
1447.656250	11.991563
1446.009766	43.123837
1444.363281	-18.380272
1442.716797	70.446136
1441.070313	-4.688828
1439.421875	5.196462
1437.775391	36.322296
1436.126953	-20.539219
1434.478516	-28.841053
1432.830078	26.548725
1431.179688	-30.258959
1429.531250	52.399002
1427.880859	68.354706
1426.230469	37.343380
1424.580078	-33.031849
1422.929688	40.491817
1421.279297	71.596115
1419.626953	67.877846
1417.974609	79.299866
1416.322266	-0.063994
1414.669922	103.656235
1413.017578	63.654018
1411.363281	-56.468945
1409.710938	-32.915035
1408.056641	-35.060520
1406.402344	23.247112
1404.748047	40.741241
1403.091797	38.596836
1401.437500	4.741105
1399.781250	50.931732
1398.125000	29.174976
1396.468750	-77.088280
1394.812500	-21.842548
1393.154297	-54.116089
1391.498047	20.718817
1389.839844	-46.225845
1388.181641	39.140133
1386.523438	-63.949024
1384.865234	19.886295
1383.205078	23.834175
1381.544922	-0.837706
1379.884766	-31.519512
1378.224609	14.611846
1376.564453	-40.139824
1374.904297	13.508036
1373.242188	23.498177
1371.580078	-73.334129
1369.919922	-34.743084
1368.255859	50.460094
1366.593750	-29.765373
1364.931641	-0.213917
1363.267578	21.815777
1361.603516	-7.249729
1359.939453	-0.243232
1358.275391	-14.264005
1356.611328	-53.804024
1354.945313	-42.274994
1353.279297	-29.245977
1351.613281	-14.717864
1349.947266	-52.707413
1348.281250	-23.172049
1346.615234	-76.134514
1344.947266	-27.104511
1343.279297	60.886951
1341.611328	6.453736
1339.943359	19.481182
1338.275391	-87.351181
1336.605469	68.000305
1334.935547	25.607647
1333.267578	4.196517
1331.597656	-29.176367
1329.925781	-13.140793
1328.255859	-44.993061
1326.583984	-79.818893
1324.912109	-36.850380
1323.240234	19.561605
1321.568359	-3.285727
1319.896484	-2.204306
1318.224609	-50.436600
1316.550781	26.862474
1314.876953	36.910755
1313.203125	6.633249
1311.529297	-35.573959
1309.853516	-95.673149
1308.179688	-21.416265
1306.503906	49.829426
1304.828125	30.040648
1303.152344	14.737877
1301.474609	54.623760
1299.798828	37.836582
1298.121094	-2.789721
1296.443359	17.708010
1294.765625	24.789454
1293.087891	-15.800676
1291.410156	40.440140
1289.730469	11.783297
1288.050781	21.849171
1286.371094	-0.832980
1284.691406	53.880478
1283.011719	38.645023
1281.332031	5.567918
1279.650391	23.073757
1277.968750	-12.953543
1276.287109	19.418961
1274.605469	-19.560848
1272.921875	2.403706
1271.240234	104.583527
1269.556641	24.029406
1267.873047	74.191902
1266.189453	-13.741288
1264.505859	79.458801
1262.820313	10.859847
1261.134766	20.930588
1259.451172	10.228864
1257.765625	39.579536
1256.078125	15.540062
1254.392578	-27.761877
1252.705078	8.995784
1251.019531	-4.646074
1249.332031	54.317604
1247.642578	-30.421209
1245.955078	15.197408
1244.267578	6.015195
1242.578125	-15.002449
1240.888672	-6.410000
1239.199219	24.375139
1237.509766	-24.737406
1235.818359	4.563713
1234.128906	-46.000217
1232.437500	49.824276
1230.746094	6.666561
1229.054688	56.629490
1227.363281	17.922987
1225.669922	59.002926
1223.976563	24.746469
1222.283203	68.762337
1220.589844	-26.005913
1218.896484	-18.894630
1217.203125	-28.017385
1215.507813	35.155678
1213.812500	37.828259
1212.117188	25.753357
1210.421875	56.440575
1208.726563	-5.749783
1207.029297	14.617536
1205.332031	82.126228
1203.636719	25.863297
1201.937500	2.029722
1200.240234	81.278679
1198.542969	39.776001
1196.843750	29.201817
1195.144531	61.307186
1193.445313	69.859032
1191.746094	23.983034
1190.046875	41.362869
1188.345703	45.504219
1186.644531	130.493225
1184.943359	87.583862
1183.242188	28.529394
1181.541016	44.421444
1179.837891	72.058167
1178.136719	93.807220
1176.433594	117.016441
1174.730469	62.421619
1173.027344	23.991837
1171.322266	98.552834
1169.619141	73.332253
1167.914063	124.384834
1166.208984	84.507416
1164.503906	148.727905
1162.796875	81.015472
1161.091797	118.832039
1159.384766	128.798233
1157.677734	102.141937
1155.970703	169.216370
1154.263672	120.599632
1152.554688	139.337158
1150.847656	125.868073
1149.138672	179.709457
1147.429688	123.814789
1145.720703	183.481400
1144.009766	238.736420
1142.300781	124.384941
1140.589844	138.701981
1138.878906	195.388214
1137.167969	122.023308
1135.455078	130.486191
1133.744141	233.864227
1132.031250	198.495621
1130.318359	220.069351
1128.605469	257.685730
1126.892578	134.783401
1125.179688	156.351608
1123.464844	227.498749
1121.750000	209.665390
1120.035156	282.224792
1118.320313	165.270416
1116.605469	240.718735
1114.888672	246.202148
1113.171875	232.745148
1111.455078	177.058868
1109.738281	274.273499
1108.021484	247.711166
1106.302734	225.525742
1104.585938	286.284332
1102.867188	262.640564
1101.148438	240.458801
1099.429688	229.917206
1097.708984	294.978027
1095.990234	249.539780
1094.269531	253.528915
1092.548828	245.890488
1090.828125	280.377747
1089.105469	192.857803
1087.384766	227.336044
1085.662109	257.443481
1083.939453	270.118958
1082.216797	220.391495
1080.492188	272.234985
1078.769531	237.026535
1077.044922	238.084534
1075.320313	189.845734
1073.595703	299.618958
1071.871094	213.702606
1070.146484	195.916733
1068.419922	133.231430
1066.693359	208.153809
1064.966797	81.776497
1063.240234	256.558075
1061.513672	182.321365
1059.785156	193.488754
1058.056641	232.135345
1056.328125	217.245117
1054.599609	183.558517
1052.871094	256.870697
1051.140625	191.384125
1049.412109	138.926758
1047.681641	158.732452
1045.951172	151.079636
1044.218750	98.656593
1042.488281	141.550003
1040.755859	146.888580
1039.023438	113.251785
1037.291016	177.749695
1035.558594	183.065628
1033.826172	173.951492
1032.091797	222.521988
1030.357422	136.983047
1028.623047	101.927895
1026.888672	138.941345
1025.154297	134.150345
1023.417969	67.415733
1021.681641	153.369888
1019.945313	204.725067
1018.208984	129.367950
1016.472656	183.576340
1014.734375	109.688156
1012.998047	97.689392
1011.259766	170.557480
1009.521484	162.857941
1007.783203	211.230255
1006.042969	120.145493
1004.302734	157.001694
1002.564453	147.857178
1000.824219	131.531036
999.082031	95.101685
997.341797	123.298424
995.599609	188.805862
993.859375	150.937424
992.117188	157.567001
990.373047	152.713013
988.630859	142.117508
986.886719	145.864182
985.144531	191.182556
983.400391	170.539001
981.656250	167.097412
979.910156	110.638794
978.166016	115.797478
976.419922	148.162979
974.673828	100.322189
972.927734	116.919846
971.181641	91.997711
969.433594	121.461037
967.687500	122.291626
965.939453	110.244827
964.191406	92.478241
962.441406	134.766251
960.693359	56.954578
958.943359	94.935028
957.195313	95.742813
955.445313	103.689369
953.693359	110.200836
951.943359	122.415001
950.191406	126.054657
948.441406	94.003456
946.689453	74.805588
944.935547	154.055511
943.183594	94.903915
941.431641	58.590450
939.677734	77.894814
937.923828	115.717361
936.169922	143.542603
934.414063	115.782043
932.660156	150.708374
930.904297	138.615311
929.148438	90.923752
927.392578	115.854050
925.636719	63.908031
923.878906	83.132683
922.123047	136.488632
920.365234	141.455444
918.607422	79.575653
916.849609	169.851685
915.089844	88.082832
913.330078	100.143661
911.572266	96.563431
909.812500	154.066635
908.050781	116.382271
906.291016	108.527847
904.529297	42.466480
902.767578	81.462059
901.005859	75.026192
899.244141	156.551483
897.482422	141.582031
895.718750	89.743698
893.957031	122.992561
892.193359	65.501129
890.427734	118.574944
888.664063	45.513866
886.898438	150.975113
885.134766	106.255630
883.369141	65.800095
881.603516	86.232819
879.835938	166.100311
878.070313	110.078453
876.302734	89.447342
874.535156	129.643570
872.767578	131.635193
871.000000	58.686169
869.230469	120.054619
867.460938	59.851372
865.693359	43.470718
863.921875	92.077339
862.152344	14.958172
860.382813	64.952637
858.611328	64.099724
856.839844	42.071457
855.068359	34.159988
853.296875	29.069702
851.523438	114.252426
849.751953	75.293777
847.978516	123.764091
846.205078	89.042465
844.431641	120.569603
842.656250	188.714554
840.880859	265.278656
839.107422	364.339508
837.332031	339.442474
835.554688	231.494019
833.779297	91.215553
832.001953	5.875244
830.226563	48.593475
828.447266	16.743307
826.669922	84.748055
824.892578	64.144104
823.113281	40.735512
821.333984	119.925232
819.554688	19.230423
817.775391	8.480358
815.996094	53.909966
814.214844	-27.055243
812.435547	7.125983
810.654297	70.764809
808.871094	41.760822
807.089844	85.718407
805.306641	70.744736
803.525391	-24.158333
801.742188	74.457176
799.958984	49.676392
798.173828	-5.926383
796.390625	43.575417
794.605469	17.410759
792.820313	40.272942
791.035156	85.526543
789.248047	76.163330
787.462891	79.397873
785.675781	-20.917856
783.888672	119.434868
782.101563	55.516422
780.314453	9.803082
778.525391	31.217024
776.736328	21.869064
774.947266	19.511114
773.158203	-10.790584
771.369141	38.541569
769.578125	80.869202
767.789063	88.269966
765.998047	-20.197887
764.207031	59.795109
762.414063	43.473614
760.623047	22.972422
758.830078	-28.204172
757.037109	40.563950
755.244141	-11.989357
753.451172	2.384530
751.656250	-11.118166
749.863281	19.968048
748.068359	-19.998650
746.271484	-44.628155
744.476563	3.154042
742.681641	36.995457
740.884766	-71.133751
739.087891	83.765442
737.291016	-39.628521
735.494141	-58.655991
733.695313	-6.756724
731.896484	13.145702
730.097656	-5.877565
728.298828	-31.839609
726.500000	-10.552344
724.701172	14.894001
722.900391	-4.107556
721.099609	26.883545
719.298828	-40.693504
717.496094	-13.867313
715.695313	36.535980
713.892578	-21.282642
712.089844	-12.502372
710.287109	-34.229179
708.484375	-25.445751
706.679688	8.285263
704.876953	-21.739370
703.072266	-40.664467
701.267578	-62.348793
699.460938	14.300774
697.656250	-7.380568
695.849609	-63.653698
694.042969	-71.462837
692.236328	-19.770651
690.429688	4.236448
688.621094	-7.720709
686.812500	-22.434504
685.005859	-48.198307
683.195313	-24.189917
681.386719	-67.897087
679.578125	-42.506443
677.767578	-68.226097
675.957031	-75.978813
674.146484	15.678868
672.333984	-8.642647
670.523438	-12.249996
668.710938	-58.620617
666.898438	2.626165
665.085938	-58.887959
663.273438	10.614835
661.458984	-20.536404
659.644531	3.458780
657.830078	-46.957241
656.015625	-2.292173
654.201172	-48.542114
652.384766	12.640074
650.570313	-15.684552
648.753906	28.958710
646.935547	-19.984455
645.119141	-56.519196
643.300781	17.008671
641.484375	39.627663
639.666016	34.746506
637.847656	39.496147
636.027344	23.637117
634.208984	6.416873
632.388672	-25.898508
630.568359	-43.085457
628.748047	64.693657
626.925781	0.835018
625.105469	-6.717337
623.283203	-22.490839
621.460938	19.369635
619.636719	31.045576
617.814453	1.584226
615.990234	36.581749
614.167969	35.932648
612.343750	-16.782024
610.517578	42.883904
608.693359	1.165697
606.867188	0.560357
605.041016	21.871044
603.214844	19.909863
601.388672	19.326811
599.562500	37.909088
597.734375	44.181416
595.906250	68.240242
594.078125	-8.890535
592.250000	4.250832
590.419922	85.737686
588.591797	45.577419
586.761719	62.826424
584.931641	7.683987
583.099609	48.169891
581.269531	9.458074
579.437500	58.135635
577.605469	26.283289
575.773438	92.693344
573.941406	-7.338847
572.107422	71.345596
570.273438	84.556580
568.439453	41.879623
566.605469	86.459442
564.771484	32.920475
562.935547	106.114159
561.101563	108.459038
559.265625	110.815018
557.427734	79.145920
555.591797	77.445305
553.753906	10.437021
551.917969	57.753735
550.080078	72.415962
548.240234	43.565857
546.402344	86.799652
544.562500	17.200409
542.724609	-4.791583
540.884766	18.077808
539.042969	35.516041
537.203125	46.165588
535.361328	36.455086
533.519531	36.263260
531.677734	19.795452
529.835938	-15.651456
527.994141	-33.434635
526.150391	8.483778
524.306641	13.780910
522.462891	-13.451939
520.619141	13.558175
518.773438	-78.687469
516.927734	-21.842751
515.082031	-1.585783
513.236328	21.382236
511.390625	41.643433
509.542969	-24.728495
507.697266	33.452091
505.849609	-42.338264
504.000000	-16.621183
502.152344	34.792065
500.302734	-3.051250
498.455078	-19.237719
496.605469	13.254333
494.753906	6.556216
492.904297	-10.938152
491.052734	-24.360125
489.203125	17.601032
487.351563	23.102331
485.498047	-29.430023
483.646484	-25.249340
481.792969	15.371749
479.939453	42.495609
478.085938	31.855162
476.232422	38.758263
474.376953	9.272127
472.523438	-5.367449
470.667969	-14.599151
468.812500	-34.594715
466.955078	32.977608
465.099609	-12.586182
463.242188	-10.998525
461.384766	-22.862621
459.527344	29.881044
457.667969	54.358547
455.810547	15.611489
453.951172	-36.556526
452.091797	8.111818
450.232422	40.670265
448.371094	18.123062
446.511719	19.776474
444.650391	-4.085150
442.789063	1.617578
440.927734	42.235722
439.064453	6.324921
437.201172	-24.195396
435.337891	-14.440622
433.474609	-36.882111
431.611328	19.826405
429.748047	17.512131
427.882813	12.524260
426.017578	3.521765
424.152344	25.349285
422.285156	23.056801
420.419922	-63.621834
418.552734	-29.729038
416.685547	-15.932078
414.818359	-26.234016
412.949219	47.786545
411.082031	45.506584
409.212891	-10.278223
407.343750	12.870638
405.472656	5.257457
403.603516	-33.102161
401.732422	-5.952500
399.861328	-10.886098
397.990234	-27.842758
396.119141	-22.087862
394.246094	17.048283
392.375000	-11.926820
390.501953	20.509171
388.628906	-3.121837
386.753906	-9.400468
384.880859	-14.349863
383.005859	36.710426
381.130859	-12.256314
379.253906	17.441303
377.378906	-28.848885
375.501953	8.817738
373.626953	-2.831954
371.748047	66.759918
369.871094	-67.417252
367.994141	-41.796333
366.115234	-17.527298
364.236328	-39.854542
362.357422	49.565697
360.478516	11.245624
358.597656	32.769764
356.716797	22.361492
354.835938	22.575077
352.955078	33.402645
351.074219	28.264400
349.191406	31.081373
347.308594	-64.395477
345.425781	45.946159
343.542969	-5.728472
341.658203	-5.642417
339.775391	-10.888796
337.890625	-1.563148
336.005859	-9.508105
334.119141	36.890381
332.234375	-12.208347
330.347656	3.631371
328.460938	51.236984
326.574219	17.979156
324.685547	29.739021
322.798828	-4.887220
320.910156	-24.967247
319.021484	26.402130
317.132813	-30.799511
315.242188	-0.691687
313.351563	21.428156
311.460938	24.984478
309.570313	7.344101
307.679688	-39.411327
305.787109	-13.502228
303.896484	1.779511
302.003906	-17.335863
300.111328	18.978737
298.216797	-23.994345
296.322266	-2.313594
294.429688	-15.009845
292.535156	-54.143021
290.638672	-37.905403
288.744141	36.301281
286.847656	-28.038992
284.951172	-1.444123
283.054688	-30.280033
281.158203	-26.221506
279.259766	-2.466526
277.361328	21.212265
275.462891	25.059685
273.564453	-48.842442
271.666016	-72.763390
269.765625	41.434307
267.865234	18.672546
265.964844	6.367767
264.064453	5.826512
262.162109	-3.999006
260.261719	-36.248928
258.359375	12.914750
256.457031	6.784104
254.552734	0.567350
252.650391	29.725388
250.746094	24.637011
248.841797	-8.112134
246.937500	20.744556
245.031250	29.805405
243.126953	15.147965
241.220703	12.197254
239.314453	-31.509216
237.406250	38.755589
235.500000	10.573969
233.591797	9.810250
231.683594	-19.891926
229.775391	56.402203
227.865234	34.320774
225.957031	-7.510440
224.046875	-33.742271
222.136719	15.815356
220.226563	-0.200697
218.314453	18.974073
216.402344	27.541739
214.490234	-1.952025
212.578125	-11.965232
210.666016	22.318966
208.751953	-14.123555
206.839844	6.785043
204.925781	-54.756809
203.009766	40.265591
201.095703	-37.237686
