#Wave		#Intensity
4001.644531	52.835785
4000.500000	43.685070
3999.354492	-31.504713
3998.209961	-87.012344
3997.064453	32.120914
3995.918945	13.737927
3994.772461	-32.993362
3993.626953	18.462931
3992.480469	56.822697
3991.333984	3.588453
3990.187500	22.327503
3989.040039	-4.709152
3987.893555	16.215757
3986.746094	-23.872965
3985.598633	21.024755
3984.451172	153.040207
3983.302734	-13.350232
3982.154297	5.406744
3981.006836	-28.089924
3979.857422	69.030716
3978.708984	57.305588
3977.560547	-80.610672
3976.411133	-42.261658
3975.261719	130.928162
3974.112305	6.131107
3972.961914	18.360748
3971.811523	32.761215
3970.662109	-9.353201
3969.511719	59.375698
3968.360352	32.485992
3967.209961	-61.734516
3966.058594	28.688339
3964.907227	-72.008759
3963.755859	29.238419
3962.604492	100.059029
3961.452148	55.831657
3960.299805	9.449983
3959.147461	52.031952
3957.995117	10.004354
3956.841797	95.942802
3955.689453	38.741833
3954.536133	57.436920
3953.382813	19.769178
3952.228516	47.126484
3951.075195	113.469574
3949.920898	-49.836021
3948.766602	113.960861
3947.612305	82.802917
3946.458008	-24.124012
3945.302734	24.842863
3944.147461	-49.574825
3942.992188	114.056839
3941.836914	7.190566
3940.680664	-4.463253
3939.525391	72.551079
3938.369141	30.609333
3937.211914	57.860264
3936.055664	24.573572
3934.898438	105.833504
3933.742188	40.130489
3932.584961	-10.430002
3931.426758	38.379906
3930.269531	-14.331156
3929.111328	114.337425
3927.953125	91.843971
3926.794922	-14.820448
3925.636719	38.233704
3924.477539	67.531235
3923.319336	60.139595
3922.160156	13.925174
3921.000000	17.318268
3919.840820	50.885143
3918.680664	32.702374
3917.520508	92.104073
3916.360352	26.502979
3915.200195	68.635818
3914.040039	84.898972
3912.878906	79.615318
3911.717773	-13.952275
3910.556641	49.658020
3909.394531	-11.597387
3908.233398	58.429951
3907.071289	57.424412
3905.909180	28.446526
3904.746094	107.011269
3903.583984	-29.498468
3902.420898	162.981049
3901.257813	176.967163
3900.094727	120.017418
3898.931641	32.997730
3897.767578	27.642040
3896.603516	39.464069
3895.439453	-49.662945
3894.275391	-14.228322
3893.111328	134.965637
3891.946289	-24.984818
3890.781250	184.228973
3889.616211	7.146786
3888.451172	66.095215
3887.285156	13.484197
3886.119141	89.549217
3884.953125	4.775579
3883.787109	12.200611
3882.620117	49.620934
3881.454102	52.732010
3880.287109	38.694744
3879.120117	97.483444
3877.952148	85.568306
3876.785156	-24.850513
3875.617188	-43.179054
3874.449219	-33.683685
3873.281250	37.861401
3872.112305	81.556480
3870.944336	5.425065
3869.775391	40.536373
3868.606445	111.980042
3867.436523	55.103397
3866.267578	47.404858
3865.097656	-103.498543
3863.927734	61.907898
3862.757813	143.920090
3861.587891	-19.761784
3860.416992	30.181986
3859.246094	-13.856898
3858.075195	78.748032
3856.904297	-16.530802
3855.732422	31.205618
3854.560547	38.374184
3853.388672	73.264458
3852.216797	-0.648701
3851.044922	147.244095
3849.872070	69.063034
3848.699219	12.219430
3847.526367	49.169113
3846.353516	-33.239754
3845.179688	73.997505
3844.005859	-2.012191
3842.832031	7.189672
3841.658203	-15.561922
3840.484375	72.395157
3839.309570	-1.464467
3838.134766	18.336765
3836.959961	-38.480900
3835.785156	-16.570757
3834.609375	39.356483
3833.434570	-30.220303
3832.258789	59.691250
3831.082031	183.575760
3829.906250	-39.049988
3828.729492	1.910563
3827.552734	106.588379
3826.375977	28.527931
3825.199219	-134.468735
3824.021484	33.856594
3822.844727	17.397747
3821.666992	30.655499
3820.489258	-62.217159
3819.310547	27.424198
3818.131836	47.012859
3816.954102	64.463570
3815.774414	69.176544
3814.595703	69.637650
3813.416992	10.730809
3812.237305	83.253006
3811.057617	41.303337
3809.877930	-34.540020
3808.697266	46.400021
3807.516602	-29.431711
3806.336914	70.519264
3805.155273	-1.069704
3803.974609	50.136349
3802.792969	35.705856
3801.612305	-29.512991
3800.430664	99.926392
3799.248047	-47.790169
3798.066406	43.521263
3796.883789	52.327000
3795.701172	27.296070
3794.518555	-29.438896
3793.335938	44.865566
3792.152344	19.828117
3790.968750	85.631477
3789.785156	18.337969
3788.601563	-48.937599
3787.417969	33.711082
3786.233398	6.552060
3785.048828	127.136497
3783.864258	11.328481
3782.678711	106.536407
3781.494141	102.559387
3780.308594	14.217332
3779.123047	37.658123
3777.937500	-44.327892
3776.750977	65.523384
3775.564453	-54.384045
3774.377930	19.595394
3773.191406	15.594339
3772.004883	24.226143
3770.817383	30.742912
3769.629883	16.196138
3768.442383	-32.033005
3767.254883	60.765030
3766.066406	63.037643
3764.878906	10.600446
3763.690430	38.111839
3762.500977	8.822855
3761.312500	86.778633
3760.123047	-20.307522
3758.933594	-3.343060
3757.744141	-114.587181
3756.554688	1.133283
3755.364258	144.116043
3754.173828	-0.715779
3752.983398	106.503387
3751.792969	98.197693
3750.602539	18.515644
3749.411133	58.493202
3748.219727	4.020336
3747.028320	90.133247
3745.835938	44.056129
3744.644531	-16.690413
3743.452148	0.166856
3742.259766	77.811867
3741.067383	65.290359
3739.874023	-28.964043
3738.680664	-5.848685
3737.487305	130.381134
3736.293945	94.801666
3735.100586	48.760651
3733.906250	-24.486277
3732.711914	9.053195
3731.517578	92.808342
3730.323242	32.137894
3729.127930	94.927849
3727.932617	84.476669
3726.737305	67.751007
3725.541992	80.303177
3724.345703	147.204712
3723.150391	55.216351
3721.954102	222.405624
3720.757813	65.656746
3719.560547	128.320023
3718.364258	78.165504
3717.166992	144.973846
3715.969727	151.203690
3714.771484	111.502518
3713.574219	105.207481
3712.375977	98.912720
3711.177734	78.012444
3709.979492	15.397598
3708.780273	82.112106
3707.582031	84.156746
3706.382813	184.186157
3705.183594	77.815292
3703.983398	88.189842
3702.784180	63.135323
3701.583984	129.753387
3700.383789	96.365257
3699.182617	137.958450
3697.982422	112.906097
3696.781250	204.438736
3695.580078	125.265053
3694.378906	158.491104
3693.177734	212.509033
3691.975586	220.741638
3690.773438	195.693054
3689.571289	249.670212
3688.369141	251.650269
3687.166016	247.392914
3685.962891	220.275314
3684.759766	315.760437
3683.556641	290.715790
3682.352539	269.834167
3681.149414	307.106689
3679.945313	300.762573
3678.740234	319.331238
3677.536133	369.025452
3676.331055	385.498291
3675.126953	487.029419
3673.920898	356.193695
3672.715820	345.696930
3671.510742	411.927002
3670.304688	436.668488
3669.098633	409.580078
3667.891602	496.486145
3666.685547	454.892426
3665.478516	483.751343
3664.271484	529.169800
3663.064453	586.997009
3661.857422	564.053284
3660.649414	522.488098
3659.441406	559.588623
3658.233398	578.051575
3657.025391	644.094543
3655.816406	637.713684
3654.607422	525.858826
3653.398438	689.063599
3652.189453	624.793274
3650.980469	736.244812
3649.770508	795.990295
3648.560547	779.263245
3647.350586	766.675293
3646.139648	774.748474
3644.929688	865.423584
3643.718750	815.666199
3642.507813	904.238647
3641.295898	881.327087
3640.084961	846.043945
3638.873047	913.934509
3637.661133	1039.559204
3636.449219	1037.270386
3635.236328	898.891724
3634.023438	1088.365112
3632.810547	1166.462769
3631.597656	1073.482422
3630.384766	1102.106689
3629.170898	1046.259155
3627.957031	1124.315186
3626.743164	1132.327637
3625.529297	1162.987671
3624.314453	1133.941528
3623.099609	1088.443359
3621.884766	1193.182007
3620.669922	1248.506714
3619.454102	1219.476929
3618.239258	1227.479126
3617.023438	1385.586548
3615.806641	1315.439209
3614.590820	1296.706909
3613.374023	1368.408325
3612.157227	1503.781494
3610.940430	1291.929077
3609.723633	1523.806641
3608.505859	1408.552612
3607.288086	1402.162476
3606.070313	1432.727417
3604.852539	1506.384888
3603.633789	1487.678223
3602.415039	1489.498169
3601.196289	1575.421509
3599.977539	1622.349976
3598.758789	1603.649902
3597.539063	1689.514893
3596.319336	1668.767334
3595.099609	1654.179321
3593.878906	1733.851318
3592.659180	1637.322266
3591.438477	1686.253174
3590.217773	1763.838257
3588.996094	1990.859131
3587.775391	1822.725342
3586.553711	1771.316772
3585.332031	2024.821533
3584.109375	1860.881226
3582.887695	1850.416504
3581.665039	1976.981812
3580.442383	1986.955322
3579.219727	1921.289673
3577.996094	1908.795898
3576.773438	2016.880737
3575.549805	2108.584961
3574.325195	2006.194580
3573.101563	2018.221313
3571.876953	2234.451416
3570.652344	2042.276733
3569.427734	2064.510986
3568.203125	2135.722656
3566.977539	2241.601563
3565.752930	2302.562744
3564.526367	2135.057129
3563.300781	2338.779785
3562.075195	2307.949951
3560.848633	2391.298096
3559.622070	2333.984131
3558.395508	2396.928467
3557.167969	2559.688232
3555.940430	2479.983398
3554.712891	2465.487549
3553.485352	2440.820557
3552.257813	2473.173584
3551.029297	2619.509277
3549.800781	2668.108887
3548.572266	2759.425049
3547.343750	2767.303467
3546.114258	2718.233154
3544.884766	2661.052490
3543.655273	2626.264160
3542.425781	2715.497803
3541.195313	2955.106445
3539.965820	2802.438232
3538.734375	2873.321777
3537.503906	2954.339600
3536.273438	2921.600586
3535.041992	2917.308105
3533.810547	2943.475586
3532.579102	2902.655762
3531.346680	3111.475098
3530.115234	3042.244385
3528.882813	3145.480957
3527.650391	3167.554443
3526.416992	3039.562256
3525.184570	3156.951904
3523.951172	3213.489990
3522.717773	3219.344238
3521.483398	3152.254395
3520.250000	3279.688477
3519.015625	3346.313721
3517.781250	3382.542236
3516.545898	3301.322998
3515.311523	3369.949463
3514.076172	3525.592285
3512.840820	3424.173584
3511.605469	3589.875977
3510.369141	3470.290527
3509.133789	3524.694336
3507.897461	3591.217529
3506.660156	3572.807861
3505.423828	3665.588135
3504.186523	3531.985352
3502.949219	3612.627930
3501.711914	3770.016357
3500.474609	3701.124512
3499.236328	3698.909668
3497.998047	3702.759521
3496.759766	3753.045166
3495.521484	3855.795898
3494.282227	3869.723877
3493.042969	3841.282959
3491.803711	3833.031738
3490.564453	3992.188232
3489.324219	3977.876221
3488.084961	3909.140869
3486.844727	3884.784180
3485.603516	3922.918945
3484.363281	4009.403564
3483.122070	3964.916748
3481.880859	4021.162109
3480.639648	4069.337891
3479.397461	4026.898438
3478.156250	4024.741943
3476.914063	4163.479980
3475.671875	3889.653809
3474.428711	4197.379395
3473.186523	3909.582031
3471.943359	4168.933594
3470.700195	4084.352051
3469.456055	4172.704102
3468.212891	4216.807617
3466.968750	4039.842285
3465.724609	4110.088867
3464.479492	4138.130371
3463.235352	4186.251465
3461.990234	4129.940430
3460.745117	4119.834961
3459.499023	4222.152832
3458.253906	4075.572266
3457.007813	4125.701660
3455.761719	4183.843750
3454.515625	4083.508545
3453.268555	4233.902344
3452.021484	4093.508301
3450.775391	4123.572754
3449.527344	4057.427002
3448.280273	4173.671387
3447.032227	4037.429443
3445.784180	4185.699219
3444.536133	4223.764160
3443.287109	4203.751953
3442.039063	4163.732422
3440.790039	4059.681885
3439.541016	4145.801270
3438.291016	4145.855957
3437.041992	4107.905273
3435.791992	4197.987793
3434.541992	3954.077637
3433.291016	4154.136719
3432.041016	4176.212402
3430.790039	4094.355957
3429.539063	4094.467285
3428.287109	4100.580078
3427.036133	4134.660645
3425.784180	4040.918945
3424.532227	3813.436035
3423.280273	4075.161133
3422.027344	3949.568115
3420.774414	3889.885498
3419.521484	3943.961426
3418.268555	3902.269287
3417.014648	3926.418945
3415.761719	3980.476563
3414.507813	4182.059570
3413.252930	3943.037598
3411.999023	3929.320068
3410.744141	3835.910645
3409.489258	3780.395508
3408.234375	3762.753174
3406.978516	3828.768066
3405.723633	3936.575928
3404.467773	3817.406738
3403.210938	3897.326172
3401.955078	3746.382568
3400.698242	3800.432861
3399.441406	3649.578613
3398.184570	3647.951416
3396.927734	3596.619385
3395.669922	3577.123535
3394.412109	3680.880127
3393.154297	3661.388428
3391.896484	3465.070068
3390.637695	3441.666504
3389.378906	3561.286377
3388.120117	15496.622070
3386.861328	3534.355469
3385.601563	3507.011963
3384.341797	3394.342773
3383.082031	3357.126953
3381.822266	3526.263672
3380.561523	3352.182617
3379.300781	3376.495117
3378.040039	3345.284912
3376.779297	3393.390625
3375.517578	3296.792969
3374.256836	3331.029785
3372.995117	3347.428467
3371.732422	3254.875977
3370.470703	3190.091064
3369.208008	3259.991455
3367.945313	3254.637451
3366.682617	3168.134277
3365.418945	3216.247559
3364.155273	3084.287109
3362.891602	3253.087891
3361.627930	3148.872559
3360.363281	3109.964355
3359.099609	3065.143311
3357.834961	3125.117920
3356.569336	2989.407959
3355.304688	3092.859131
3354.039063	3097.492920
3352.773438	2952.005615
3351.507813	2950.750244
3350.241211	2775.739014
3348.975586	3007.484619
3347.708984	2925.310059
3346.442383	2967.500000
3345.174805	2942.595459
3343.907227	2870.361084
3342.639648	2892.831055
3341.372070	2867.970947
3340.104492	2847.068848
3338.835938	2741.418945
3337.567383	2683.114502
3336.298828	2745.035156
3335.029297	2645.392578
3333.760742	2740.791992
3332.491211	2631.351074
3331.221680	2697.193848
3329.951172	2731.520996
3328.681641	2724.506104
3327.411133	2569.912109
3326.139648	2747.885010
3324.869141	2504.835938
3323.597656	2578.527100
3322.327148	2626.631348
3321.054688	2619.677734
3319.783203	2551.796387
3318.510742	2649.025391
3317.238281	2488.827148
3315.965820	2527.106689
3314.693359	2647.867920
3313.419922	2566.326172
3312.146484	2412.175049
3310.873047	2468.125977
3309.599609	2459.294434
3308.325195	2444.585449
3307.050781	2388.687256
3305.776367	2570.154541
3304.501953	2527.990234
3303.226563	2497.612061
3301.951172	2473.130615
3300.675781	2532.942871
3299.400391	2422.249268
3298.124023	2517.324219
3296.847656	2295.029785
3295.571289	2360.723389
3294.294922	2416.605957
3293.017578	2325.640381
3291.740234	2361.943604
3290.462891	2411.936035
3289.185547	2277.989014
3287.907227	2327.987793
3286.628906	2421.000732
3285.350586	2349.718262
3284.072266	2298.018311
3282.792969	2303.031494
3281.513672	2335.408203
3280.234375	2270.074707
3278.955078	2394.274902
3277.674805	2205.906494
3276.394531	2191.422607
3275.114258	2366.344727
3273.833984	2219.095459
3272.552734	2245.616943
3271.272461	2225.296143
3269.990234	2210.843018
3268.708984	2293.930908
3267.426758	2308.730713
3266.145508	2226.029785
3264.862305	2116.072510
3263.580078	2103.618896
3262.296875	2163.281250
3261.014648	2215.128418
3259.731445	2015.657471
3258.447266	2106.476074
3257.164063	2150.525635
3255.879883	2198.456787
3254.595703	2217.173340
3253.310547	2239.779541
3252.026367	2071.684326
3250.741211	2053.459961
3249.456055	2150.007080
3248.169922	2116.223633
3246.884766	2125.230469
3245.598633	2155.621826
3244.312500	2014.964844
3243.025391	2043.428955
3241.739258	2073.825928
3240.452148	2036.226929
3239.165039	2053.025146
3237.876953	2023.218262
3236.589844	1941.005249
3235.301758	2082.046631
3234.013672	1941.640137
3232.724609	1997.260376
3231.436523	1986.902954
3230.147461	1918.366455
3228.857422	1956.514160
3227.568359	2039.240845
3226.278320	1895.142090
3224.989258	1879.011108
3223.698242	1824.137451
3222.408203	1850.652588
3221.117188	1882.972046
3219.826172	1835.880859
3218.535156	1992.112061
3217.244141	1824.998779
3215.952148	1719.887695
3214.660156	1818.004883
3213.368164	1900.608276
3212.076172	1720.107422
3210.783203	1808.504272
3209.490234	1763.448608
3208.197266	1772.542603
3206.903320	1603.810669
3205.610352	1636.124634
3204.316406	1649.107788
3203.022461	1710.381592
3201.727539	1595.876343
3200.432617	1564.450684
3199.137695	1612.196045
3197.842773	1565.339111
3196.547852	1533.940796
3195.251953	1651.133423
3193.956055	1577.291992
3192.660156	1393.536499
3191.363281	1445.125366
3190.067383	1354.015625
3188.770508	1438.365356
3187.472656	1459.082520
3186.175781	1470.156006
3184.877930	1504.346680
3183.580078	1413.319336
3182.282227	1366.622437
3180.983398	1462.433228
3179.684570	1332.966431
3178.385742	1401.801025
3177.086914	1314.733398
3175.788086	1335.444946
3174.488281	1284.975220
3173.188477	1274.914307
3171.887695	1228.323486
3170.587891	1243.270996
3169.287109	1250.526001
3167.986328	1175.139771
3166.685547	1195.855225
3165.383789	1168.537354
3164.082031	989.493530
3162.780273	1112.012817
3161.478516	1121.206421
3160.175781	1109.282227
3158.873047	1009.077148
3157.570313	1102.717041
3156.267578	1037.084351
3154.963867	1011.759460
3153.660156	1088.085815
3152.356445	1035.916504
3151.052734	1087.286743
3149.748047	918.221436
3148.443359	992.591125
3147.138672	884.917908
3145.833984	920.953003
3144.528320	882.282715
3143.222656	933.623596
3141.916992	799.241272
3140.610352	890.774780
3139.304688	771.760681
3137.998047	867.089539
3136.691406	811.254578
3135.383789	765.004944
3134.076172	793.350525
3132.768555	806.389099
3131.460938	754.429810
3130.153320	790.402954
3128.844727	677.321106
3127.536133	740.040771
3126.227539	764.533875
3124.917969	620.965515
3123.608398	794.398987
3122.298828	773.050903
3120.989258	637.194275
3119.678711	661.681396
3118.369141	640.367310
3117.057617	567.561035
3115.747070	630.185730
3114.436523	589.820129
3113.125000	559.002075
3111.813477	556.784912
3110.500977	586.964661
3109.189453	499.001740
3107.876953	620.614563
3106.564453	500.299835
3105.250977	515.229248
3103.937500	522.535706
3102.625000	442.277039
3101.310547	544.747803
3099.997070	439.778046
3098.682617	492.744904
3097.368164	469.609680
3096.053711	482.612549
3094.739258	402.446350
3093.423828	497.193390
3092.108398	455.063568
3090.792969	399.646912
3089.476563	399.345276
3088.160156	414.237244
3086.843750	341.763916
3085.527344	407.922333
3084.210938	354.457306
3082.893555	502.197754
3081.576172	332.978302
3080.257813	355.444733
3078.940430	309.611298
3077.622070	286.552765
3076.303711	310.904816
3074.984375	270.789734
3073.666016	279.967010
3072.346680	317.565796
3071.027344	300.201752
3069.707031	373.770844
3068.387695	288.214935
3067.067383	276.541077
3065.747070	319.773193
3064.425781	277.808228
3063.104492	194.221786
3061.783203	296.094421
3060.461914	276.851685
3059.140625	265.179291
3057.818359	204.342850
3056.496094	241.842590
3055.173828	315.240967
3053.850586	246.863419
3052.527344	142.607346
3051.204102	236.756668
3049.880859	143.869965
3048.556641	186.989182
3047.233398	201.765457
3045.909180	175.003403
3044.583984	208.647324
3043.259766	125.277199
3041.934570	211.738297
3040.608398	218.939392
3039.283203	180.870407
3037.957031	214.466522
3036.630859	174.522949
3035.304688	200.561615
3033.978516	117.286362
3032.651367	164.046356
3031.324219	71.386429
3029.997070	187.816437
3028.668945	110.246819
3027.341797	119.305367
3026.013672	175.416122
3024.684570	73.419884
3023.356445	121.984734
3022.027344	153.597794
3020.698242	53.535393
3019.368164	117.112221
3018.039063	131.776306
3016.708984	65.602776
3015.378906	144.165054
3014.047852	123.105865
3012.717773	143.380676
3011.386719	173.036896
3010.055664	114.414452
3008.723633	98.996719
3007.392578	126.756195
3006.060547	58.782600
3004.727539	0.215447
3003.395508	39.224979
3002.062500	72.589638
3000.729492	64.678535
2999.396484	146.769119
2998.062500	39.481979
2996.728516	127.162308
2995.394531	126.728668
2994.060547	88.819351
2992.725586	127.724731
2991.390625	61.730320
2990.055664	38.825123
2988.720703	17.797083
2987.384766	45.440956
2986.048828	18.798866
2984.712891	83.845169
2983.376953	83.387703
2982.040039	103.501366
2980.703125	39.454247
2979.366211	55.821285
2978.028320	72.179192
2976.690430	17.508720
2975.352539	74.967201
2974.014648	65.145081
2972.675781	36.645908
2971.336914	95.923599
2969.998047	37.547714
2968.659180	102.393982
2967.319336	27.235125
2965.979492	28.607107
2964.639648	15.049219
2963.299805	14.549245
2961.958984	-10.197493
2960.618164	89.986214
2959.277344	1.843397
2957.935547	66.565826
2956.593750	-8.501545
2955.251953	50.599758
2953.910156	25.850201
2952.567383	81.189713
2951.225586	-12.460086
2949.881836	67.059593
2948.539063	90.703598
2947.195313	95.725677
2945.852539	37.480465
2944.507813	89.008911
2943.164063	14.041057
2941.819336	82.280693
2940.474609	-26.129103
2939.129883	-62.008762
2937.784180	26.636292
2936.439453	1.899517
2935.093750	42.188656
2933.747070	-19.694916
2932.401367	57.713257
2931.054688	66.393150
2929.708008	47.221169
2928.360352	72.594818
2927.013672	12.598203
2925.666016	-21.406143
2924.318359	15.081353
2922.969727	-26.336124
2921.621094	62.044746
2920.272461	13.210161
2918.923828	29.258022
2917.575195	49.001190
2916.225586	-33.163101
2914.875977	56.963726
2913.525391	15.564302
2912.175781	37.128948
2910.825195	45.723114
2909.474609	-34.532001
2908.123047	-24.085007
2906.772461	-67.301872
2905.420898	-29.115101
2904.069336	-7.592688
2902.716797	-15.667266
2901.364258	-69.961021
2900.011719	-29.972729
2898.659180	-34.356327
2897.305664	-51.675320
2895.953125	15.980997
2894.599609	42.975471
2893.245117	12.712628
2891.891602	-13.851755
2890.537109	-16.413692
2889.181641	-33.741993
2887.827148	-4.941655
2886.471680	29.378202
2885.116211	0.970445
2883.760742	20.514027
2882.405273	30.826822
2881.048828	-52.877377
2879.692383	-2.017690
2878.334961	15.651775
2876.978516	40.677570
2875.621094	-57.716473
2874.263672	20.709602
2872.905273	53.072273
2871.547852	-87.619713
2870.189453	34.924210
2868.830078	15.729310
2867.471680	44.369289
2866.112305	-26.332092
2864.752930	-111.722870
2863.393555	1.490420
2862.033203	35.608799
2860.672852	66.033279
2859.312500	-28.514956
2857.952148	34.970825
2856.590820	92.917480
2855.229492	-18.122606
2853.868164	-94.237190
2852.505859	2.239347
2851.144531	27.090279
2849.782227	9.720813
2848.418945	-70.026283
2847.056641	13.510832
2845.693359	23.651157
2844.330078	-112.909576
2842.965820	-38.591705
2841.602539	-57.788300
2840.238281	38.471478
2838.874023	-2.727841
2837.508789	-20.100674
2836.143555	0.990262
2834.778320	49.535698
2833.413086	-46.575447
2832.046875	29.408337
2830.681641	19.343189
2829.314453	20.257284
2827.948242	10.189360
2826.581055	-7.194511
2825.214844	77.827560
2823.846680	9.236469
2822.479492	19.268137
2821.111328	49.395618
2819.743164	81.333748
2818.375000	-3.664767
2817.005859	53.834152
2815.636719	56.521187
2814.267578	-37.564835
2812.898438	92.911064
2811.528320	-6.628885
2810.158203	32.544952
2808.788086	27.914030
2807.416992	-16.847351
2806.046875	120.769791
2804.675781	12.182874
2803.303711	-63.552307
2801.932617	15.657477
2800.560547	0.076066
2799.188477	33.687157
2797.815430	56.352154
2796.443359	13.440808
2795.070313	-73.157089
2793.696289	-34.113052
2792.323242	12.190866
2790.949219	29.357079
2789.575195	13.762983
2788.201172	-21.838844
2786.826172	2.585950
2785.451172	68.818336
2784.076172	4.126526
2782.701172	37.606834
2781.325195	-63.406834
2779.949219	13.671201
2778.573242	23.502321
2777.196289	-22.975939
2775.819336	-40.387001
2774.442383	72.919167
2773.065430	57.302574
2771.687500	1.763477
2770.309570	-30.170778
2768.931641	10.465767
2767.553711	-1.515594
2766.174805	-0.802234
2764.795898	32.540436
2763.416992	25.987646
2762.037109	17.621548
2760.657227	-5.240935
2759.277344	-40.779720
2757.897461	37.798298
2756.516602	29.420225
2755.135742	-4.305987
2753.754883	-23.541821
2752.373047	-19.246166
2750.991211	-5.909205
2749.609375	27.318563
2748.227539	-15.438088
2746.844727	39.471680
2745.461914	-64.751389
2744.079102	13.638095
2742.696289	48.616943
2741.312500	34.790329
2739.928711	-49.493031
2738.544922	-12.727632
2737.160156	-8.486409
2735.775391	-27.723133
2734.390625	32.472488
2733.005859	54.738781
2731.620117	-33.081188
2730.234375	-99.221085
2728.848633	-24.643539
2727.461914	-22.235842
2726.076172	-43.273781
2724.689453	-19.238497
2723.301758	89.495506
2721.915039	-10.851815
2720.527344	38.375099
2719.138672	-7.890027
2717.750977	-75.752907
2716.362305	-57.163460
2714.973633	22.623564
2713.584961	-65.015114
2712.195313	11.135972
2710.806641	101.646431
2709.416016	67.998795
2708.026367	-19.594604
2706.635742	11.520146
2705.245117	33.629944
2703.854492	-23.359430
2702.462891	32.886242
2701.072266	-16.901161
2699.680664	-39.726437
2698.288086	-23.033545
2696.896484	36.744495
2695.503906	8.525835
2694.110352	7.239568
2692.717773	29.279593
2691.324219	-49.170326
2689.930664	-10.989398
2688.537109	16.411629
2687.142578	-20.755983
2685.748047	-57.912693
2684.353516	19.661238
2682.958984	45.229137
2681.563477	45.699039
2680.167969	6.753882
2678.771484	0.060481
2677.375977	82.902199
2675.979492	-49.136742
2674.583008	1.455349
2673.185547	43.076351
2671.789063	63.205330
2670.391602	56.488865
2668.993164	69.447105
2667.595703	-5.228590
2666.197266	32.760811
2664.798828	58.219124
2663.400391	80.089729
2662.000977	75.145981
2660.601563	-24.483837
2659.202148	18.814802
2657.801758	-7.552802
2656.401367	16.079491
2655.000977	27.203642
2653.600586	18.688076
2652.199219	58.351788
2650.797852	10.578571
2649.396484	50.222088
2647.995117	-29.637207
2646.592773	42.086887
2645.190430	42.473854
2643.787109	1.865377
2642.384766	27.201311
2640.981445	-9.831092
2639.578125	99.209846
2638.173828	1.622218
2636.769531	44.732475
2635.365234	13.054916
2633.960938	41.901325
2632.555664	24.467375
2631.150391	-5.416698
2629.745117	19.850447
2628.339844	25.542017
2626.933594	68.568642
2625.527344	77.798531
2624.121094	15.926769
2622.713867	-5.051422
2621.306641	62.810055
2619.899414	-22.122576
2618.492188	4.862257
2617.083984	8.751089
2615.675781	44.590496
2614.266602	34.265446
2612.858398	66.531067
2611.449219	-9.446219
2610.040039	-12.667086
2608.629883	-5.247906
2607.220703	-42.164127
2605.810547	-2.836389
2604.399414	8.113979
2602.989258	-55.372440
2601.578125	5.188607
2600.166992	33.837486
2598.754883	28.822313
2597.343750	87.552429
2595.930664	-7.765475
2594.518555	22.623495
2593.106445	1.677282
2591.693359	17.893133
2590.280273	41.176052
2588.866211	67.984955
2587.452148	-59.059822
2586.038086	15.487662
2584.624023	1.624005
2583.208984	54.918709
2581.794922	-11.958713
2580.378906	32.480724
2578.963867	25.680201
2577.547852	15.348757
2576.131836	20.908508
2574.715820	22.933443
2573.298828	-13.869864
2571.881836	53.441330
2570.464844	71.328964
2569.047852	-7.798878
2567.629883	91.206032
2566.211914	86.149475
2564.793945	44.076023
2563.375000	33.739727
2561.956055	70.979340
2560.537109	58.875809
2559.118164	59.103954
2557.698242	38.198696
2556.278320	56.032978
2554.857422	59.776360
2553.437500	44.156654
2552.016602	76.049713
2550.595703	25.244743
2549.173828	46.571823
2547.752930	18.649403
2546.330078	55.789219
2544.908203	64.786613
2543.485352	133.532928
2542.063477	14.236952
2540.639648	53.097122
2539.216797	79.644524
2537.792969	6.082859
2536.369141	87.053276
2534.945313	17.026243
2533.520508	-23.139120
2532.095703	38.481907
2530.670898	-15.710391
2529.245117	-29.540869
2527.819336	81.141525
2526.393555	67.293701
2524.967773	48.190460
2523.541016	83.424187
2522.114258	29.276659
2520.687500	57.488739
2519.260742	36.643936
2517.833008	84.103424
2516.405273	-38.292419
2514.976563	-52.108562
2513.547852	37.339500
2512.119141	13.011248
2510.690430	79.664017
2509.261719	22.099825
2507.832031	39.755028
2506.402344	31.174854
2504.971680	22.596687
2503.541016	19.263266
2502.110352	14.182169
2500.679688	28.318985
2499.248047	47.688923
2497.816406	-1.058779
2496.384766	72.432457
2494.953125	20.204632
2493.520508	48.280888
2492.087891	41.444984
2490.655273	52.056309
2489.221680	-83.857857
2487.788086	-1.727235
2486.354492	62.933159
2484.919922	57.836643
2483.485352	-8.260967
2482.050781	110.376915
2480.616211	73.909470
2479.180664	117.580902
2477.745117	9.721493
2476.309570	131.737869
2474.873047	43.064758
2473.437500	55.372635
2472.000000	50.273438
2470.563477	73.011078
2469.125977	31.378967
2467.688477	108.020515
2466.250977	22.926203
2464.812500	16.092779
2463.374023	92.687332
2461.935547	-1.045998
2460.497070	70.306381
2459.057617	86.044548
2457.618164	54.884663
2456.177734	129.652084
2454.738281	148.836502
2453.297852	69.080688
2451.857422	4.972750
2450.416016	25.901632
2448.974609	124.877937
2447.533203	57.324646
2446.091797	50.483707
2444.649414	71.381393
2443.207031	74.937119
2441.764648	40.366596
2440.321289	104.563148
2438.877930	132.356842
2437.434570	167.065445
2435.990234	40.729481
2434.546875	82.364197
2433.101563	21.863688
2431.657227	84.248665
2430.211914	60.101669
2428.766602	96.504974
2427.321289	106.951019
2425.875977	75.893425
2424.429688	60.405674
2422.983398	62.206772
2421.536133	57.093716
2420.089844	112.451019
2418.642578	115.964249
2417.194336	121.201889
2415.747070	86.722153
2414.298828	121.308502
2412.849609	16.074835
2411.401367	48.933010
2409.952148	80.051857
2408.502930	133.581284
2407.052734	69.814491
2405.603516	78.491005
2404.152344	28.549644
2402.703125	82.041229
2401.251953	99.322647
2399.800781	76.969376
2398.349609	82.184410
2396.898438	71.896095
2395.445313	83.995270
2393.994141	97.809395
2392.541016	96.126495
2391.087891	54.863834
2389.634766	17.057182
2388.181641	132.357422
2386.728516	44.673477
2385.275391	89.421623
2383.820313	86.015755
2382.365234	53.390724
2380.910156	32.806423
2379.455078	38.000275
2378.000000	130.795761
2376.544922	87.878082
2375.089844	-9.969702
2373.632813	63.892380
2372.175781	74.217674
2370.718750	31.340647
2369.261719	22.793163
2367.804688	74.284821
2366.347656	45.149471
2364.888672	12.595555
2363.429688	60.626057
2361.972656	5.797202
2360.513672	17.821007
2359.054688	19.558867
2357.593750	96.664757
2356.134766	86.395302
2354.673828	23.048800
2353.214844	62.441082
2351.753906	-7.724273
2350.292969	31.655956
2348.832031	28.246933
2347.369141	16.285379
2345.908203	33.400497
2344.445313	33.409126
2342.984375	2.644450
2341.521484	9.493122
2340.058594	50.514561
2338.593750	55.639931
2337.130859	7.808768
2335.667969	26.600067
2334.203125	-7.548779
2332.738281	19.771263
2331.273438	40.251842
2329.808594	26.593882
2328.343750	53.886368
2326.878906	-38.236916
2325.412109	-62.107384
2323.945313	-9.241166
2322.478516	-12.653890
2321.011719	-36.519630
2319.544922	-4.143205
2318.078125	-22.892776
2316.611328	-21.195721
2315.142578	19.669140
2313.673828	-0.780613
2312.205078	-38.247131
2310.736328	-36.554035
2309.267578	-45.073025
2307.798828	-26.368805
2306.328125	-0.869383
2304.859375	28.019274
2303.388672	-51.924320
2301.917969	-24.739578
2300.447266	0.733041
2298.974609	-23.084991
2297.503906	68.632797
2296.031250	-24.834976
2294.560547	-24.862761
2293.087891	-16.402296
2291.615234	-31.712828
2290.142578	-58.899467
2288.667969	22.525042
2287.195313	-79.313240
2285.720703	-55.591908
2284.246094	3.731807
2282.773438	13.859126
2281.296875	-72.644814
2279.822266	-16.748001
2278.347656	32.346752
2276.871094	-28.701080
2275.396484	-38.911278
2273.919922	52.491047
2272.443359	-11.915310
2270.966797	-42.441151
2269.488281	-47.568977
2268.011719	-29.006775
2266.533203	-47.673042
2265.056641	-46.036259
2263.578125	-44.401642
2262.099609	24.861738
2260.619141	-9.020874
2259.140625	-53.032463
2257.662109	-32.817287
2256.181641	-41.331749
2254.701172	-19.441242
2253.220703	-36.402248
2251.740234	-9.459886
2250.259766	-21.355499
2248.777344	14.008332
2247.296875	-21.514183
2245.814453	22.267036
2244.332031	-35.173420
2242.849609	-40.315300
2241.367188	6.809899
2239.884766	-43.855572
2238.400391	4.933269
2236.917969	41.905178
2235.433594	87.284019
2233.949219	-8.841102
2232.464844	-15.677837
2230.978516	4.424913
2229.494141	-79.848015
2228.009766	-39.548893
2226.523438	-37.968273
2225.037109	-38.072456
2223.550781	15.644039
2222.064453	12.161799
2220.576172	-6.452323
2219.089844	35.452969
2217.601563	3.392741
2216.115234	-37.057995
2214.626953	48.500332
2213.138672	-33.936760
2211.648438	-17.266676
2210.160156	16.183531
2208.669922	36.189869
2207.181641	61.220577
2205.691406	74.493919
2204.201172	-2.828432
2202.710938	40.638393
2201.218750	-24.911829
2199.728516	-35.111908
2198.236328	-15.137899
2196.744141	-38.746941
2195.251953	-72.401688
2193.759766	66.500145
2192.267578	41.207687
2190.775391	-22.590822
2189.281250	-32.791733
2187.787109	25.637016
2186.294922	-83.311081
2184.800781	-9.841661
2183.304688	-35.101109
2181.810547	-63.697754
2180.316406	26.438126
2178.820313	-18.882067
2177.324219	14.373622
2175.828125	15.861680
2174.332031	0.638861
2172.835938	15.488359
2171.337891	52.041389
2169.841797	-18.289822
2168.343750	31.606279
2166.845703	19.722240
2165.347656	-40.554005
2163.849609	25.993719
2162.351563	27.455982
2160.851563	13.905259
2159.353516	30.371496
2157.853516	38.493183
2156.353516	-16.727955
2154.853516	1.393743
2153.353516	-7.151865
2151.851563	-27.356647
2150.351563	-45.890331
2148.849609	-19.461758
2147.347656	50.237099
2145.845703	18.376268
2144.343750	58.080990
2142.839844	14.580320
2141.337891	-30.568745
2139.833984	-45.766850
2138.330078	67.068817
2136.826172	30.240992
2135.322266	86.500633
2133.818359	29.737879
2132.314453	-3.745037
2130.808594	-53.827480
2129.302734	17.339743
2127.796875	41.985142
2126.291016	61.637760
2124.785156	36.467758
2123.279297	19.602079
2121.771484	32.603359
2120.263672	-2.505608
2118.757813	-32.627911
2117.250000	51.663094
2115.740234	33.140469
2114.232422	36.168331
2112.724609	49.134373
2111.214844	30.615368
2109.705078	-17.713036
2108.195313	-4.752085
2106.685547	3.233807
2105.175781	37.699223
2103.664063	4.292573
2102.154297	30.464945
2100.642578	15.265472
2099.130859	16.609461
2097.619141	6.374465
2096.107422	-8.819157
2094.595703	43.763451
2093.082031	13.688765
2091.570313	48.064293
2090.056641	-24.956505
2088.542969	35.833691
2087.029297	93.293755
2085.513672	31.856609
2084.000000	66.179359
2082.484375	-54.644638
2080.968750	-7.124104
2079.455078	2.432444
2077.937500	84.551857
2076.421875	51.206661
2074.906250	14.574636
2073.388672	-46.769985
2071.873047	27.041513
2070.355469	16.790184
2068.837891	-16.522173
2067.320313	1.232369
2065.800781	5.803447
2064.283203	48.234985
2062.763672	5.055678
2061.244141	16.197035
2059.724609	48.719841
2058.205078	25.297434
2056.685547	74.245728
2055.164063	32.734264
2053.644531	35.624149
2052.123047	10.567811
2050.601563	46.320881
2049.080078	9.765921
2047.558594	-8.708274
2046.035156	40.156189
2044.513672	18.393444
2042.990234	-0.080338
2041.466797	27.406759
2039.943359	113.954346
2038.419922	-48.912197
2036.896484	16.285896
2035.371094	35.535252
2033.847656	43.296570
2032.322266	8.429822
2030.796875	19.465101
2029.271484	17.383976
2027.744141	8.747151
2026.218750	-22.820450
2024.691406	97.921356
2023.164063	10.674069
2021.636719	-22.521048
2020.109375	83.408394
2018.582031	-7.064590
2017.054688	-10.797410
2015.525391	77.063576
2013.996094	4.626143
2012.468750	-23.640471
2010.939453	54.352612
2009.408203	50.595367
2007.878906	-15.253987
2006.347656	-20.635284
2004.818359	24.615442
2003.287109	42.083855
2001.755859	49.746170
2000.224609	55.770115
1998.691406	22.620869
1997.160156	51.484776
1995.626953	16.712477
1994.093750	1.523007
1992.560547	10.796494
1991.027344	-27.216082
1989.494141	-19.576603
1987.960938	17.390469
1986.425781	101.589378
1984.890625	3.304357
1983.355469	36.977554
1981.820313	31.554165
1980.285156	-11.313829
1978.750000	54.885906
1977.212891	28.297585
1975.675781	-1.536969
1974.138672	-23.228951
1972.601563	44.533165
1971.064453	-30.823484
1969.527344	43.409355
1967.988281	-18.919905
1966.451172	3.274035
1964.912109	-13.536620
1963.373047	52.498096
1961.833984	92.518814
1960.292969	5.872597
1958.753906	11.790151
1957.212891	-21.250486
1955.671875	25.231161
1954.130859	11.663814
1952.589844	82.444206
1951.048828	-26.815218
1949.505859	14.753562
1947.964844	-15.022738
1946.421875	63.797001
1944.878906	25.914845
1943.335938	43.126698
1941.792969	2.019120
1940.248047	-14.784266
1938.705078	-55.869057
1937.160156	51.981827
1935.615234	88.576675
1934.070313	-9.144809
1932.525391	-4.912591
1930.978516	2.549520
1929.433594	40.730431
1927.886719	-37.512310
1926.339844	-17.125158
1924.792969	-72.704659
1923.246094	36.541553
1921.699219	1.968726
1920.150391	-47.128784
1918.601563	-55.840363
1917.052734	-22.576031
1915.503906	-16.767530
1913.955078	8.401064
1912.406250	15.808922
1910.855469	-30.021709
1909.306641	-16.163240
1907.755859	0.911354
1906.205078	45.382248
1904.654297	-47.169125
1903.101563	-41.387150
1901.550781	20.779694
1899.998047	34.594238
1898.447266	-32.122082
1896.894531	-19.917479
1895.339844	40.573048
1893.787109	2.859060
1892.234375	50.442516
1890.679688	57.783249
1889.125000	40.991165
1887.570313	48.325916
1886.015625	66.910080
1884.460938	-12.573208
1882.906250	20.475424
1881.349609	3.695735
1879.792969	-45.209713
1878.236328	40.821728
1876.679688	-17.711029
1875.123047	-5.579077
1873.566406	33.833813
1872.007813	50.759792
1870.449219	-25.386650
1868.890625	18.811502
1867.332031	37.327297
1865.773438	15.744612
1864.214844	26.233028
1862.654297	-57.856304
1861.093750	-39.349106
1859.533203	28.817631
1857.972656	-3.965686
1856.412109	3.301819
1854.851563	13.766774
1853.289063	0.210985
1851.728516	-5.337658
1850.166016	56.324562
1848.603516	29.963013
1847.039063	-13.985850
1845.476563	23.645164
1843.914063	21.285074
1842.349609	66.882294
1840.785156	42.133961
1839.220703	76.518616
1837.656250	-5.740080
1836.091797	-19.282486
1834.525391	-15.254795
1832.958984	71.795509
1831.392578	-61.484692
1829.826172	-43.091835
1828.259766	53.479599
1826.693359	-22.287205
1825.125000	-8.704349
1823.558594	54.307404
1821.990234	-35.767410
1820.421875	-3.066345
1818.853516	37.588486
1817.285156	28.830292
1815.714844	16.887735
1814.144531	-1.422263
1812.576172	-37.241882
1811.005859	3.370556
1809.433594	18.496614
1807.863281	24.067245
1806.292969	45.545120
1804.720703	79.738480
1803.148438	26.442907
1801.576172	-31.602320
1800.003906	32.788013
1798.431641	19.267746
1796.857422	37.533794
1795.285156	31.959997
1793.710938	0.971405
1792.136719	-28.417412
1790.562500	-5.397091
1788.986328	6.499784
1787.412109	-40.333405
1785.835938	6.474308
1784.259766	31.050901
1782.683594	-1.485912
1781.107422	-24.494989
1779.531250	-23.712378
1777.955078	23.040052
1776.376953	-17.396255
1774.798828	32.502926
1773.220703	-15.840986
1771.642578	-7.145240
1770.064453	-49.127941
1768.484375	30.815535
1766.906250	9.419400
1765.326172	95.647263
1763.746094	-33.348953
1762.166016	71.834709
1760.583984	-14.401107
1759.003906	-0.979893
1757.421875	10.853827
1755.841797	70.102211
1754.259766	-33.446537
1752.675781	28.945038
1751.093750	56.558884
1749.511719	-56.399300
1747.927734	69.118477
1746.343750	8.300016
1744.759766	-22.504425
1743.175781	-50.140022
1741.591797	46.874462
1740.005859	69.711777
1738.421875	35.766399
1736.835938	-10.779041
1735.250000	19.938665
1733.664063	8.089970
1732.076172	23.033655
1730.490234	4.888206
1728.902344	15.101869
1727.316406	36.335968
1725.728516	62.284359
1724.138672	40.998234
1722.550781	15.000730
1720.962891	66.114990
1719.373047	18.099588
1717.783203	48.746082
1716.193359	27.487984
1714.603516	-9.482166
1713.013672	73.024521
1711.421875	31.346697
1709.830078	38.394203
1708.240234	73.716278
1706.648438	71.330772
1705.054688	31.261297
1703.462891	75.984818
1701.871094	-11.153658
1700.277344	50.823586
1698.683594	61.001785
1697.089844	52.353642
1695.496094	37.437302
1693.902344	66.431267
1692.306641	35.843906
1690.710938	132.222717
1689.117188	106.338860
1687.521484	78.899918
1685.923828	107.861397
1684.328125	97.662727
1682.730469	126.611633
1681.134766	116.416588
1679.537109	107.791939
1677.939453	125.772842
1676.341797	156.263275
1674.742188	133.563980
1673.144531	114.004021
1671.544922	60.058262
1669.945313	118.679695
1668.345703	67.884857
1666.746094	95.235664
1665.144531	127.262985
1663.544922	73.380569
1661.943359	111.649368
1660.341797	154.588043
1658.740234	91.374611
1657.138672	42.234333
1655.535156	142.894028
1653.933594	148.363327
1652.330078	57.140995
1650.726563	128.117233
1649.123047	149.182114
1647.519531	121.925262
1645.914063	132.079620
1644.310547	136.001358
1642.705078	152.384445
1641.099609	90.899719
1639.494141	141.543930
1637.888672	136.131332
1636.281250	104.266090
1634.675781	156.440796
1633.068359	144.814087
1631.460938	147.193359
1629.853516	163.569992
1628.244141	114.645103
1626.636719	123.256096
1625.027344	89.906837
1623.417969	58.128494
1621.808594	158.405960
1620.199219	103.336929
1618.589844	122.826721
1616.978516	115.919868
1615.369141	118.332619
1613.757813	47.813171
1612.146484	85.929504
1610.535156	105.419945
1608.921875	103.193909
1607.310547	91.669876
1605.697266	92.555435
1604.083984	73.296356
1602.470703	117.580055
1600.857422	10.026212
1599.242188	51.214310
1597.628906	69.161156
1596.013672	73.169983
1594.398438	61.701908
1592.783203	54.885517
1591.167969	29.508686
1589.550781	100.058052
1587.935547	56.131153
1586.318359	105.005661
1584.701172	56.466267
1583.083984	0.223097
1581.466797	15.094180
1579.847656	54.683735
1578.230469	77.269783
1576.611328	44.252487
1574.992188	18.974010
1573.373047	9.148254
1571.751953	47.177071
1570.132813	-19.736038
1568.511719	16.749825
1566.890625	138.060776
1565.269531	52.679012
1563.648438	35.177715
1562.027344	42.352810
1560.404297	58.776718
1558.783203	39.759190
1557.160156	25.376183
1555.537109	35.647640
1553.912109	4.342662
1552.289063	-17.706476
1550.664063	-24.348808
1549.041016	1.334706
1547.416016	-0.682430
1545.791016	34.225761
1544.164063	29.137257
1542.539063	37.895359
1540.912109	-53.271366
1539.287109	23.139769
1537.660156	-52.607849
1536.033203	20.709612
1534.404297	-15.057611
1532.777344	-13.946427
1531.148438	-3.617843
1529.519531	22.063204
1527.890625	47.739323
1526.261719	27.377106
1524.632813	-23.653301
1523.001953	23.507175
1521.373047	-4.486946
1519.742188	25.796934
1518.111328	-20.568310
1516.478516	8.185848
1514.847656	12.418700
1513.214844	27.379187
1511.583984	-2.075994
1509.951172	8.299929
1508.318359	17.146803
1506.683594	-21.452713
1505.050781	54.742168
1503.416016	10.043710
1501.783203	-74.400711
1500.148438	-21.163448
1498.511719	-9.225282
1496.876953	-11.043865
1495.242188	-29.667252
1493.605469	22.014254
1491.968750	-51.593712
1490.332031	-15.190102
1488.695313	-35.297710
1487.058594	40.796738
1485.419922	-32.726826
1483.781250	-36.010418
1482.142578	-31.656799
1480.503906	-7.466604
1478.865234	27.396622
1477.226563	11.931555
1475.585938	-85.845528
1473.945313	-44.870029
1472.304688	22.001753
1470.664063	-8.657284
1469.023438	-40.819775
1467.380859	21.461504
1465.740234	15.205143
1464.097656	-88.469574
1462.455078	24.029726
1460.812500	-20.243715
1459.167969	81.559341
1457.525391	19.054203
1455.880859	35.660286
1454.236328	-38.957573
1452.591797	41.511921
1450.947266	42.926941
1449.302734	29.154327
1447.656250	-52.966026
1446.009766	47.213219
1444.363281	-75.861145
1442.716797	-4.549705
1441.070313	-80.493187
1439.421875	-48.651451
1437.775391	34.769543
1436.126953	-12.290444
1434.478516	-30.508112
1432.830078	-4.738677
1431.179688	-48.705997
1429.531250	24.056126
1427.880859	14.968616
1426.230469	49.827625
1424.580078	8.945417
1422.929688	2.918316
1421.279297	-18.239143
1419.626953	-4.563750
1417.974609	45.435421
1416.322266	-28.652391
1414.669922	33.448460
1413.017578	53.182068
1411.363281	32.087856
1409.710938	41.246189
1408.056641	47.385815
1406.402344	38.418736
1404.748047	-0.754290
1403.091797	83.963219
1401.437500	13.097559
1399.781250	-12.432354
1398.125000	-96.818329
1396.468750	-0.046328
1394.812500	10.681379
1393.154297	-11.777329
1391.498047	-1.036027
1389.839844	-24.975266
1388.181641	32.519489
1386.523438	-0.445441
1384.865234	-57.501896
1383.205078	49.710613
1381.544922	10.761298
1379.884766	-1.053584
1378.224609	-33.937038
1376.564453	2.453819
1374.904297	-78.566315
1373.242188	-7.553283
1371.580078	9.274345
1369.919922	-9.999425
1368.255859	-8.200982
1366.593750	-27.446583
1364.931641	7.441712
1363.267578	24.288486
1361.603516	-0.938122
1359.939453	-27.648523
1358.275391	-7.777548
1356.611328	18.099598
1354.945313	22.955246
1353.279297	-48.737633
1351.613281	16.175610
1349.947266	-4.455432
1348.281250	-17.569372
1346.615234	-3.673674
1344.947266	-33.260189
1343.279297	-52.332447
1341.611328	-87.876183
1339.943359	42.940498
1338.275391	-18.062845
1336.605469	-38.588234
1334.935547	24.767744
1333.267578	-43.656479
1331.597656	45.137451
1329.925781	12.674438
1328.255859	-10.790409
1326.583984	88.436501
1324.912109	-29.247337
1323.240234	1.169161
1321.568359	-38.688057
1319.896484	-6.772626
1318.224609	-83.957260
1316.550781	-4.217802
1314.876953	-36.540237
1313.203125	20.768150
1311.529297	-27.956118
1309.853516	23.370590
1308.179688	20.950188
1306.503906	31.969265
1304.828125	13.152596
1303.152344	-20.564915
1301.474609	-51.277332
1299.798828	10.469982
1298.121094	-5.314896
1296.443359	-34.499153
1294.765625	-20.452940
1293.087891	57.652317
1291.410156	71.687309
1289.730469	-2.131799
1288.050781	31.279181
1286.371094	-14.205525
1284.691406	23.672222
1283.011719	6.490995
1281.332031	26.511860
1279.650391	-11.468652
1277.968750	41.273853
1276.287109	-62.089645
1274.605469	21.866465
1272.921875	3.264301
1271.240234	53.014774
1269.556641	29.971304
1267.873047	44.069294
1266.189453	41.836163
1264.505859	1.016494
1262.820313	19.584492
1261.134766	9.959664
1259.451172	-23.391024
1257.765625	-32.990040
1256.078125	33.045887
1254.392578	-0.268597
1252.705078	83.531143
1251.019531	68.014771
1249.332031	-18.602442
1247.642578	-29.632292
1245.955078	36.355682
1244.267578	32.732468
1242.578125	64.645439
1240.888672	40.310886
1239.199219	4.154902
1237.509766	59.740658
1235.818359	-57.739281
1234.128906	15.592114
1232.437500	-2.763144
1230.746094	23.238222
1229.054688	-5.444619
1227.363281	38.287022
1225.669922	34.737072
1223.976563	-2.773876
1222.283203	-1.873450
1220.589844	18.222712
1218.896484	39.791275
1217.203125	77.587547
1215.507813	10.627875
1213.812500	18.925697
1212.117188	90.635727
1210.421875	31.102139
1208.726563	29.086210
1207.029297	122.869942
1205.332031	42.754585
1203.636719	108.514259
1201.937500	82.939705
1200.240234	97.136040
1198.542969	53.915779
1196.843750	38.684978
1195.144531	83.798309
1193.445313	56.805752
1191.746094	106.316971
1190.046875	73.456528
1188.345703	81.783920
1186.644531	107.751350
1184.943359	48.470184
1183.242188	112.644569
1181.541016	107.749657
1179.837891	73.486916
1178.136719	81.825104
1176.433594	98.973305
1174.730469	107.310555
1173.027344	80.427597
1171.322266	72.633965
1169.619141	157.258240
1167.914063	161.190048
1166.208984	153.393036
1164.503906	81.100761
1162.796875	187.649979
1161.091797	131.504990
1159.384766	135.452911
1157.677734	202.383514
1155.970703	112.599182
1154.263672	150.229370
1152.554688	152.717041
1150.847656	168.375214
1149.138672	172.325287
1147.429688	217.234680
1145.720703	164.138351
1144.009766	220.733200
1142.300781	208.595032
1140.589844	211.080963
1138.878906	215.028717
1137.167969	204.366440
1135.455078	275.508179
1133.744141	234.173050
1132.031250	243.959122
1130.318359	278.557404
1128.605469	253.306198
1126.892578	268.921234
1125.179688	325.376495
1123.464844	214.085114
1121.750000	241.367554
1120.035156	294.880249
1118.320313	310.474274
1116.605469	283.802277
1114.888672	296.480316
1113.171875	326.632477
1111.455078	276.675049
1109.738281	350.498474
1108.021484	373.341156
1106.302734	324.862122
1104.585938	340.424805
1102.867188	284.698792
1101.148438	340.988342
1099.429688	331.817078
1097.708984	325.558258
1095.990234	332.381439
1094.269531	283.980377
1092.548828	318.414154
1090.828125	306.349243
1089.105469	371.260468
1087.384766	359.186951
1085.662109	322.440491
1083.939453	290.062286
1082.216797	296.874359
1080.492188	360.261597
1078.769531	345.295929
1077.044922	292.633484
1075.320313	253.039612
1073.595703	259.844299
1071.871094	298.525848
1070.146484	245.909698
1068.419922	326.582855
1066.693359	242.118179
1064.966797	225.740402
1063.240234	283.196381
1061.513672	255.232635
1059.785156	199.786179
1058.056641	208.015732
1056.328125	211.899323
1054.599609	196.978989
1052.871094	192.182129
1051.140625	178.712601
1049.412109	218.715103
1047.681641	151.779007
1045.951172	230.767014
1044.218750	197.068527
1042.488281	202.365128
1040.755859	174.453674
1039.023438	173.973022
1037.291016	146.071259
1035.558594	193.197510
1033.826172	123.465813
1032.091797	189.316330
1030.357422	188.812744
1028.623047	176.772934
1026.888672	164.733566
1025.154297	168.543793
1023.417969	127.692207
1021.681641	148.783020
1019.945313	202.977783
1018.208984	157.810822
1016.472656	108.340034
1014.734375	189.835098
1012.998047	170.580231
1011.259766	155.644409
1009.521484	104.757416
1007.783203	197.663177
1006.042969	181.277603
1004.302734	195.073380
1002.564453	137.013611
1000.824219	169.475708
999.082031	229.207214
997.341797	178.339767
995.599609	91.598480
993.859375	129.758209
992.117188	133.456284
990.373047	147.190277
988.630859	66.240936
986.886719	144.503235
985.144531	105.154686
983.400391	179.060684
981.656250	126.810265
979.910156	129.024414
978.166016	49.574444
976.419922	111.943352
974.673828	78.339111
972.927734	114.891037
971.181641	85.579277
969.433594	147.857895
967.687500	75.615295
965.939453	90.650772
964.191406	128.553223
962.441406	49.190720
960.693359	119.947594
958.943359	120.637863
957.195313	145.609253
955.445313	123.420486
953.693359	105.518623
951.943359	77.619247
950.191406	68.283730
948.441406	97.480247
946.689453	130.937744
944.935547	83.050522
943.183594	149.286484
941.431641	84.284035
939.677734	161.880753
937.923828	51.271038
936.169922	87.493271
934.414063	110.867798
932.660156	61.569313
930.904297	49.314480
929.148438	82.622200
927.392578	131.566406
925.636719	92.232735
923.878906	62.868717
922.123047	117.448135
920.365234	82.382469
918.607422	74.342560
916.849609	103.263550
915.089844	73.881310
913.330078	16.077904
911.572266	94.694893
909.812500	93.715797
908.050781	77.104889
906.291016	70.430153
904.529297	63.749130
902.767578	30.092871
901.005859	61.717937
899.244141	55.012852
897.482422	88.017136
895.718750	77.035179
893.957031	57.539906
892.193359	12.527799
890.427734	44.056057
888.664063	52.888939
886.898438	22.042767
885.134766	71.929062
883.369141	63.727558
881.603516	25.789402
879.835938	-41.865780
878.070313	34.837093
876.302734	8.217186
874.535156	41.006809
872.767578	76.599998
871.000000	89.545456
869.230469	13.420120
867.460938	37.659237
865.693359	59.050762
863.921875	79.010994
862.152344	-28.160421
860.382813	48.270432
858.611328	39.953423
856.839844	55.624050
855.068359	50.110210
853.296875	16.371630
851.523438	5.205854
849.751953	18.007830
847.978516	11.055355
846.205078	1.276024
844.431641	19.676819
842.656250	-4.210757
840.880859	-11.194056
839.107422	59.276924
837.332031	32.548820
835.554688	18.492361
833.779297	-54.683193
832.001953	31.174522
830.226563	29.758091
828.447266	-1.205566
826.669922	10.021928
824.892578	2.956756
823.113281	26.809273
821.333984	36.587830
819.554688	-15.470342
817.775391	39.245167
815.996094	30.726847
814.214844	10.969185
812.435547	68.421600
810.654297	37.416397
808.871094	19.044180
807.089844	10.490647
805.306641	1.931303
803.525391	10.193858
801.742188	0.217084
799.958984	19.671474
798.173828	22.291067
796.390625	66.933578
794.605469	-15.926049
792.820313	60.898849
791.035156	27.065342
789.248047	22.635309
787.462891	12.600120
785.675781	36.143379
783.888672	51.273945
782.101563	41.212868
780.314453	-16.397663
778.525391	23.874310
776.736328	-8.564113
774.947266	-14.444634
773.158203	-24.522270
771.369141	-48.572300
769.578125	85.192795
767.789063	45.754715
765.998047	4.930072
764.207031	5.985424
762.414063	-65.525993
760.623047	-39.359581
758.830078	-9.027396
757.037109	-6.604640
755.244141	-19.525627
753.451172	-7.358459
751.656250	-18.893799
749.863281	8.580460
748.068359	-57.291077
746.271484	18.908958
744.476563	-6.570786
742.681641	-37.613625
740.884766	-33.855705
739.087891	-31.496405
737.291016	-36.099525
735.494141	17.708986
733.695313	6.133795
731.896484	-12.392607
730.097656	-40.645321
728.298828	17.266201
726.500000	-17.936678
724.701172	-4.512943
722.900391	-23.040054
721.099609	-59.612572
719.298828	-12.886197
717.496094	4.671829
715.695313	-37.444149
713.892578	-7.410488
712.089844	-10.678767
710.287109	-54.160419
708.484375	-58.809231
706.679688	1.683431
704.876953	-65.337326
703.072266	-63.061195
701.267578	-27.545553
699.460938	-18.358721
697.656250	-53.481255
695.849609	-58.137756
694.042969	-14.356911
692.236328	-56.379353
690.429688	-5.703158
688.621094	-22.816807
686.812500	-31.627142
685.005859	45.275028
683.195313	-11.920011
681.386719	-26.253910
679.578125	14.678788
677.767578	-50.757839
675.957031	-11.217088
674.146484	7.598755
672.333984	-37.085747
670.523438	-19.649324
668.710938	-21.534433
666.898438	-17.899132
665.085938	-34.949234
663.273438	39.010803
661.458984	2.661997
659.644531	-55.718781
657.830078	-1.083927
656.015625	-30.502163
654.201172	-18.585062
652.384766	27.755516
650.570313	21.766275
648.753906	17.160370
646.935547	59.348221
645.119141	32.733482
643.300781	-33.753609
641.484375	42.813778
639.666016	-9.886184
637.847656	13.045538
636.027344	22.230473
634.208984	42.410339
632.388672	-11.591352
630.568359	23.708258
628.748047	48.015240
626.925781	68.200920
625.105469	3.291135
623.283203	-9.438756
621.460938	19.002378
619.636719	2.177070
617.814453	52.561756
615.990234	-9.488038
614.167969	21.706478
612.343750	20.007584
610.517578	75.863693
608.693359	34.450115
606.867188	40.997723
605.041016	22.907839
603.214844	85.602348
601.388672	86.693825
599.562500	48.115742
597.734375	27.350578
595.906250	99.610985
594.078125	15.967659
592.250000	-4.739061
590.419922	25.148397
588.591797	90.565552
586.761719	102.685455
584.931641	116.179787
583.099609	60.036114
581.269531	94.042381
579.437500	43.417164
577.605469	86.995033
575.773438	101.916138
573.941406	125.030922
572.107422	141.332443
570.273438	116.736984
568.439453	105.800804
566.605469	152.129013
564.771484	109.882484
562.935547	145.324844
561.101563	145.355560
559.265625	138.595444
557.427734	97.820259
555.591797	104.720528
553.753906	123.884048
551.917969	121.288345
550.080078	120.073067
548.240234	68.559265
546.402344	132.657455
544.562500	105.670471
542.724609	69.200745
540.884766	35.484764
539.042969	110.481285
537.203125	110.765259
535.361328	22.808529
533.519531	-3.998330
531.677734	-0.912712
529.835938	15.762081
527.994141	47.374233
526.150391	30.164757
524.306641	2.135545
522.462891	17.525393
520.619141	20.730801
518.773438	-3.146430
516.927734	20.430393
515.082031	20.990812
513.236328	-9.575651
511.390625	-44.168179
509.542969	29.574511
507.697266	-13.086788
505.849609	-55.705482
504.000000	18.060621
502.152344	43.125599
500.302734	-0.759641
498.455078	39.215961
496.605469	49.462456
494.753906	-2.432518
492.904297	-51.580315
491.052734	8.727947
489.203125	-22.798161
487.351563	-31.333225
485.498047	34.401882
483.646484	-21.329487
481.792969	-14.945572
479.939453	-9.890050
478.085938	59.922611
476.232422	0.284722
474.376953	-5.379275
472.523438	-6.975440
470.667969	41.310509
468.812500	-20.870584
466.955078	-25.083607
465.099609	16.510994
463.242188	-18.627090
461.384766	0.113041
459.527344	13.484778
457.667969	13.420728
455.810547	49.695446
453.951172	10.668448
452.091797	18.738791
450.232422	56.400391
448.371094	13.432949
446.511719	14.844001
444.650391	33.740654
442.789063	37.876389
440.927734	25.918026
439.064453	44.863312
437.201172	39.661537
435.337891	-5.774060
433.474609	9.200078
431.611328	-34.829266
429.748047	5.660593
427.882813	22.020679
426.017578	-3.160527
424.152344	57.452343
422.285156	-21.281017
420.419922	-79.872833
418.552734	12.908992
416.685547	3.908552
414.818359	71.227661
412.949219	3.363684
411.082031	-4.247675
409.212891	0.199152
407.343750	16.693405
405.472656	-5.582407
403.603516	-9.123432
401.732422	24.773123
399.861328	22.585861
397.990234	23.080521
396.119141	4.884269
394.246094	86.858368
392.375000	29.953337
390.501953	17.129374
388.628906	-13.032212
386.753906	15.530437
384.880859	30.742556
383.005859	-7.391299
381.130859	-30.840662
379.253906	-27.616657
377.378906	19.582785
375.501953	21.459618
373.626953	32.655647
371.748047	-45.385735
369.871094	17.743589
367.994141	-15.010839
366.115234	-13.151233
364.236328	21.965542
362.357422	10.494043
360.478516	-4.973764
358.597656	-1.828148
356.716797	27.891802
354.835938	5.744992
352.955078	15.484689
351.074219	17.230337
349.191406	24.270725
347.308594	3.398331
345.425781	1.100413
343.542969	-39.716377
341.658203	30.939857
339.775391	-51.051590
337.890625	-22.931149
336.005859	-82.387314
334.119141	68.979065
332.234375	4.157776
330.347656	0.297061
328.460938	-20.827066
326.574219	-3.564054
324.685547	18.947773
322.798828	-8.916760
320.910156	-10.336602
319.021484	4.078022
317.132813	-41.115025
315.242188	14.209483
313.351563	-68.111526
311.460938	1.626029
309.570313	-22.601170
307.679688	-23.087852
305.787109	33.187668
303.896484	6.128373
302.003906	0.146153
300.111328	3.337250
298.216797	13.052671
296.322266	-14.278907
294.429688	-49.600357
292.535156	-16.376341
290.638672	-54.493267
288.744141	-33.333370
286.847656	-29.419582
284.951172	11.308241
283.054688	24.237827
281.158203	21.244217
279.259766	-4.252934
277.361328	7.030981
275.462891	15.561512
273.564453	4.221204
271.666016	-13.817239
269.765625	-1.705708
267.865234	10.271148
265.964844	-5.514155
264.064453	-9.593157
262.162109	28.262285
260.261719	-40.520809
258.359375	19.373215
256.457031	-29.971531
254.552734	41.403999
252.650391	20.651587
250.746094	-21.269405
248.841797	0.984622
246.937500	44.053661
245.031250	-7.558596
243.126953	-34.402920
241.220703	2.842088
239.314453	-41.426815
237.406250	42.603691
235.500000	11.049781
233.591797	-18.082672
231.683594	71.808876
229.775391	35.691647
227.865234	-24.212294
225.957031	-1.829806
224.046875	15.065101
222.136719	10.770712
220.226563	6.230185
218.314453	14.513150
216.402344	61.767647
214.490234	53.817654
212.578125	35.140984
210.666016	-3.410245
208.751953	16.564013
206.839844	0.973272
204.925781	9.899746
203.009766	79.882111
201.095703	-29.325611
