#Wave		#Intensity
4001.644531	80.427467
4000.500000	122.804787
3999.354492	-103.885361
3998.209961	79.941666
3997.064453	12.722024
3995.918945	32.839470
3994.772461	7.154263
3993.626953	-16.319170
3992.480469	-24.494097
3991.333984	67.664055
3990.187500	39.896294
3989.040039	105.892578
3987.893555	-4.650451
3986.746094	-38.866554
3985.598633	88.167686
3984.451172	58.341251
3983.302734	-17.189978
3982.154297	11.841381
3981.006836	21.284933
3979.857422	45.980602
3978.708984	9.748055
3977.560547	-6.872497
3976.411133	15.687778
3975.261719	44.780190
3974.112305	-10.933779
3972.961914	57.320076
3971.811523	29.914274
3970.662109	-71.365860
3969.511719	7.768507
3968.360352	-30.434425
3967.209961	92.134186
3966.058594	77.845276
3964.907227	4.945106
3963.755859	29.780497
3962.604492	63.300816
3961.452148	-0.839951
3960.299805	26.187445
3959.147461	-7.529196
3957.995117	-41.223351
3956.841797	1.009021
3955.689453	23.719969
3954.536133	61.608047
3953.382813	25.797640
3952.228516	33.351761
3951.075195	108.076332
3949.920898	-20.845406
3948.766602	51.713116
3947.612305	113.425186
3946.458008	120.995110
3945.302734	39.819218
3944.147461	-26.170273
3942.992188	-59.671143
3941.836914	64.780205
3940.680664	3.168504
3939.525391	-17.325397
3938.369141	50.848587
3937.211914	82.251732
3936.055664	25.026291
3934.898438	47.787819
3933.742188	57.579922
3932.584961	54.412216
3931.426758	16.692675
3930.269531	-8.053900
3929.111328	1.759286
3927.953125	26.682850
3926.794922	-64.948235
3925.636719	39.826756
3924.477539	38.849091
3923.319336	89.643326
3922.160156	90.818016
3921.000000	-35.227127
3919.840820	-49.117706
3918.680664	44.775856
3917.520508	-18.688194
3916.360352	8.371053
3915.200195	41.884064
3914.040039	15.075499
3912.878906	80.880669
3911.717773	-21.283087
3910.556641	72.490791
3909.394531	77.985023
3908.233398	-43.489422
3907.071289	88.965363
3905.909180	152.533829
3904.746094	7.455510
3903.583984	2.202255
3902.420898	67.900017
3901.257813	0.299183
3900.094727	44.478691
3898.931641	17.730865
3897.767578	27.514965
3896.603516	82.401459
3895.439453	96.461487
3894.275391	22.479321
3893.111328	-8.541997
3891.946289	82.791847
3890.781250	103.271561
3889.616211	20.751492
3888.451172	-12.401051
3887.285156	-26.239508
3886.119141	95.022697
3884.953125	100.459656
3883.787109	24.432821
3882.620117	47.021072
3881.454102	3.167851
3880.287109	-40.671352
3879.120117	33.314487
3877.952148	-51.212013
3876.785156	179.052475
3875.617188	55.986546
3874.449219	166.272797
3873.281250	41.105736
3872.112305	-86.157715
3870.944336	26.219688
3869.775391	87.219009
3868.606445	-1.503688
3867.436523	57.331619
3866.267578	58.421185
3865.097656	3.936248
3863.927734	107.598312
3862.757813	-15.254563
3861.587891	11.461761
3860.416992	76.607140
3859.246094	77.662872
3858.075195	29.609102
3856.904297	13.585410
3855.732422	33.844212
3854.560547	0.745494
3853.388672	16.720829
3852.216797	100.939346
3851.044922	23.044773
3849.872070	53.915737
3848.699219	25.079010
3847.526367	-42.118061
3846.353516	73.969254
3845.179688	98.392647
3844.005859	7.769250
3842.832031	93.947891
3841.658203	139.628967
3840.484375	17.093430
3839.309570	96.818504
3838.134766	31.786825
3836.959961	71.037178
3835.785156	18.785835
3834.609375	-3.672869
3833.434570	124.862305
3832.258789	-1.808739
3831.082031	5.491922
3829.906250	-42.480721
3828.729492	143.318817
3827.552734	-10.909248
3826.375977	-35.504524
3825.199219	143.798096
3824.021484	12.994333
3822.844727	81.804832
3821.666992	69.920013
3820.489258	81.378067
3819.310547	107.679810
3818.131836	-20.909269
3816.954102	85.990349
3815.774414	57.116016
3814.595703	0.679087
3813.416992	58.735313
3812.237305	21.381929
3811.057617	49.730412
3809.877930	67.467033
3808.697266	-8.019243
3807.516602	35.124294
3806.336914	35.890770
3805.155273	4.893334
3803.974609	12.002230
3802.792969	103.760483
3801.612305	32.539639
3800.430664	65.006477
3799.248047	-29.461582
3798.066406	15.679412
3796.883789	41.767101
3795.701172	-25.182877
3794.518555	112.914444
3793.335938	48.074940
3792.152344	17.059816
3790.968750	133.926483
3789.785156	-21.723974
3788.601563	-16.830994
3787.417969	-45.728790
3786.233398	-59.845642
3785.048828	18.901051
3783.864258	129.263977
3782.678711	3.282887
3781.494141	6.013854
3780.308594	50.917664
3779.123047	55.733925
3777.937500	75.298599
3776.750977	-23.188700
3775.564453	-9.952209
3774.377930	28.556923
3773.191406	185.017670
3772.004883	69.704254
3770.817383	42.874580
3769.629883	-91.332253
3768.442383	52.376751
3767.254883	57.114895
3766.066406	120.765839
3764.878906	-17.591452
3763.690430	6.068601
3762.500977	23.404699
3761.312500	120.631111
3760.123047	-0.830386
3758.933594	60.618084
3757.744141	-22.972174
3756.554688	-30.895067
3755.364258	41.009377
3754.173828	30.964546
3752.983398	-16.883762
3751.792969	-5.931020
3750.602539	-30.676210
3749.411133	28.536219
3748.219727	58.341801
3747.028320	25.187601
3745.835938	-62.499847
3744.644531	51.178463
3743.452148	20.122671
3742.259766	60.353352
3741.067383	-46.165581
3739.874023	63.209911
3738.680664	38.436695
3737.487305	61.850517
3736.293945	34.979984
3735.100586	18.584177
3733.906250	-10.373305
3732.711914	94.651108
3731.517578	97.073227
3730.323242	-26.068314
3729.127930	62.145626
3727.932617	-58.862698
3726.737305	-2.058571
3725.541992	88.175491
3724.345703	-34.877365
3723.150391	63.679367
3721.954102	11.722220
3720.757813	18.284807
3719.560547	85.424667
3718.364258	12.588888
3717.166992	40.015537
3715.969727	-41.146515
3714.771484	34.283783
3713.574219	51.239403
3712.375977	-19.460323
3711.177734	39.217274
3709.979492	29.029825
3708.780273	50.126137
3707.582031	25.334000
3706.382813	58.922165
3705.183594	-40.911633
3703.983398	59.357384
3702.784180	107.492088
3701.583984	66.023170
3700.383789	130.793167
3699.182617	70.584137
3697.982422	45.788895
3696.781250	45.979595
3695.580078	-28.762691
3694.378906	96.290611
3693.177734	125.586823
3691.975586	65.420464
3690.773438	177.895325
3689.571289	71.986549
3688.369141	92.933228
3687.166016	159.598465
3685.962891	41.271351
3684.759766	-31.302916
3683.556641	178.682114
3682.352539	101.948166
3681.149414	68.849083
3679.945313	85.590714
3678.740234	87.791519
3677.536133	162.631042
3676.331055	98.404938
3675.126953	5.152395
3673.920898	127.666603
3672.715820	158.876175
3671.510742	115.421257
3670.304688	98.931793
3669.098633	-4.613389
3667.891602	119.845306
3666.685547	250.470627
3665.478516	103.441498
3664.271484	109.738976
3663.064453	68.400726
3661.857422	165.798874
3660.649414	209.335541
3659.441406	128.669266
3658.233398	141.150940
3657.025391	215.694229
3655.816406	97.830597
3654.607422	141.327026
3653.398438	238.567352
3652.189453	226.196426
3650.980469	195.224564
3649.770508	155.995972
3648.560547	197.363831
3647.350586	255.241028
3646.139648	265.589233
3644.929688	315.167694
3643.718750	232.584930
3642.507813	280.083557
3641.295898	176.895447
3640.084961	187.239334
3638.873047	313.115631
3637.661133	263.606720
3636.449219	245.050583
3635.236328	267.740631
3634.023438	337.838165
3632.810547	236.825378
3631.597656	230.648422
3630.384766	234.774628
3629.170898	337.782562
3627.957031	333.646759
3626.743164	313.036926
3625.529297	296.551575
3624.314453	298.598785
3623.099609	210.085281
3621.884766	325.323578
3620.669922	329.419250
3619.454102	397.280151
3618.239258	329.377747
3617.023438	374.593292
3615.806641	294.385284
3614.590820	292.313843
3613.374023	362.171021
3612.157227	296.391815
3610.940430	345.678436
3609.723633	390.838287
3608.505859	333.304688
3607.288086	462.629303
3606.070313	378.417450
3604.852539	376.332703
3603.633789	388.613098
3602.415039	437.817841
3601.196289	370.084259
3599.977539	427.477997
3598.758789	351.570465
3597.539063	472.499756
3596.319336	378.165710
3595.099609	486.749756
3593.878906	441.624207
3592.659180	363.738983
3591.438477	277.691132
3590.217773	478.365082
3588.996094	500.841827
3587.775391	449.617950
3586.553711	519.165771
3585.332031	431.127441
3584.109375	429.049377
3582.887695	498.564636
3581.665039	492.386658
3580.442383	506.659180
3579.219727	469.819519
3577.996094	506.576813
3576.773438	522.885925
3575.549805	582.097046
3574.325195	500.335052
3573.101563	579.955078
3571.876953	534.983582
3570.652344	569.654419
3569.427734	549.199768
3568.203125	581.817261
3566.977539	538.926208
3565.752930	571.536621
3564.526367	628.613892
3563.300781	604.097534
3562.075195	630.566345
3560.848633	595.870117
3559.622070	712.015137
3558.395508	744.568359
3557.167969	693.577087
3555.940430	616.125366
3554.712891	646.648193
3553.485352	640.508545
3552.257813	642.517029
3551.029297	593.639526
3549.800781	721.839661
3548.572266	746.221252
3547.343750	670.912109
3546.114258	695.299622
3544.884766	772.554016
3543.655273	664.758423
3542.425781	733.863525
3541.195313	796.848022
3539.965820	774.463928
3538.734375	829.296387
3537.503906	748.012268
3536.273438	833.298218
3535.041992	833.271912
3533.810547	817.007202
3532.579102	812.930176
3531.346680	843.358215
3530.115234	764.209839
3528.882813	802.756287
3527.650391	794.640930
3526.416992	973.097717
3525.184570	839.254578
3523.951172	883.852051
3522.717773	896.008362
3521.483398	916.269165
3520.250000	896.005615
3519.015625	1001.340271
3517.781250	944.621826
3516.545898	983.095459
3515.311523	908.188477
3514.076172	987.143005
3512.840820	1064.047729
3511.605469	1053.924805
3510.369141	983.121704
3509.133789	950.776978
3507.897461	946.758850
3506.660156	1019.574219
3505.423828	1084.279907
3504.186523	1074.187622
3502.949219	1051.979126
3501.711914	1120.694458
3500.474609	995.479065
3499.236328	1050.051025
3497.998047	1080.376953
3496.759766	991.589600
3495.521484	1165.226807
3494.282227	1092.609253
3493.042969	1139.061768
3491.803711	1092.708374
3490.564453	1118.983154
3489.324219	1179.532471
3488.084961	1185.628296
3486.844727	1133.271240
3485.603516	1282.471191
3484.363281	1232.139038
3483.122070	1300.690063
3481.880859	1222.183960
3480.639648	1183.987793
3479.397461	1220.307861
3478.156250	1226.422485
3476.914063	1272.792969
3475.671875	1299.027344
3474.428711	1254.840454
3473.186523	1299.181274
3471.943359	1309.321045
3470.700195	1247.073486
3469.456055	1313.519897
3468.212891	1193.014038
3466.968750	1261.464233
3465.724609	1171.162231
3464.479492	1203.440918
3463.235352	1249.771118
3461.990234	1257.934937
3460.745117	1223.937744
3459.499023	1270.253174
3458.253906	1214.199097
3457.007813	1172.218262
3455.761719	1298.780273
3454.515625	1290.908081
3453.268555	1252.962402
3452.021484	1221.051147
3450.775391	1269.344238
3449.527344	1241.461060
3448.280273	1209.584839
3447.032227	1315.972656
3445.784180	1250.050293
3444.536133	1284.299072
3443.287109	1230.432983
3442.039063	1258.676025
3440.790039	1286.914307
3439.541016	1259.110229
3438.291016	1205.310669
3437.041992	1275.569458
3435.791992	1279.802002
3434.541992	1304.036011
3433.291016	1252.288818
3432.041016	1198.566528
3430.790039	1146.869385
3429.539063	1237.074585
3428.287109	1109.479980
3427.036133	1189.681030
3425.784180	1265.863159
3424.532227	1182.280151
3423.280273	1066.791870
3422.027344	1218.819092
3420.774414	1294.959839
3419.521484	1079.768799
3418.268555	1112.030151
3417.014648	1166.224854
3415.761719	1202.456543
3414.507813	1136.999023
3413.252930	1149.313843
3411.999023	1187.537598
3410.744141	1173.945068
3409.489258	1112.548828
3408.234375	1091.018677
3406.978516	1051.579346
3405.723633	1115.697266
3404.467773	1084.241821
3403.210938	1052.804443
3401.955078	1085.062866
3400.698242	1051.658447
3399.441406	1034.185669
3398.184570	1036.613525
3396.927734	1054.953613
3395.669922	1037.507080
3394.412109	1026.035645
3393.154297	1052.333740
3391.896484	1144.197021
3390.637695	1035.385864
3389.378906	958.400879
3388.120117	982.728210
3386.861328	955.429749
3385.601563	979.760132
3384.341797	966.377075
3383.082031	954.988953
3381.822266	1056.696289
3380.561523	967.947205
3379.300781	924.850952
3378.040039	971.003967
3376.779297	951.723877
3375.517578	876.958801
3374.256836	1010.305847
3372.995117	911.792908
3371.732422	950.009644
3370.470703	976.332825
3369.208008	992.751343
3367.945313	866.621277
3366.682617	839.517029
3365.418945	786.701538
3364.155273	828.888855
3362.891602	821.607605
3361.627930	816.312378
3360.363281	830.801208
3359.099609	797.836182
3357.834961	828.148315
3356.569336	751.726868
3355.304688	865.042236
3354.039063	719.503906
3352.773438	811.065308
3351.507813	805.824585
3350.241211	804.541443
3348.975586	771.675842
3347.708984	766.462463
3346.442383	662.583862
3345.174805	750.139404
3343.907227	821.885376
3342.639648	840.356567
3341.372070	663.602356
3340.104492	778.714417
3338.835938	787.344055
3337.567383	675.754639
3336.298828	684.410889
3335.029297	669.429138
3333.760742	719.457581
3332.491211	718.270386
3331.221680	722.995728
3329.951172	759.222961
3328.681641	710.807251
3327.411133	697.837219
3326.139648	619.952148
3324.869141	601.113220
3323.597656	552.786865
3322.327148	705.050110
3321.054688	664.597534
3319.783203	683.132141
3318.510742	678.083130
3317.238281	572.833984
3315.965820	607.107483
3314.693359	643.336975
3313.419922	571.553833
3312.146484	649.017944
3310.873047	557.640930
3309.599609	591.910767
3308.325195	651.682495
3307.050781	605.495911
3305.776367	610.330383
3304.501953	658.312622
3303.226563	602.363159
3301.951172	487.628571
3300.675781	580.702332
3299.400391	577.723816
3298.124023	647.244507
3296.847656	573.745544
3295.571289	496.362274
3294.294922	565.873230
3293.017578	746.955688
3291.740234	526.709717
3290.462891	619.674500
3289.185547	548.250671
3287.907227	590.323425
3286.628906	544.369385
3285.350586	609.902344
3284.072266	524.868225
3282.792969	512.199158
3281.513672	648.074036
3280.234375	543.555786
3278.955078	612.957764
3277.674805	496.776398
3276.394531	544.688599
3275.114258	567.204163
3273.833984	554.576172
3272.552734	500.970917
3271.272461	541.058044
3269.990234	553.821655
3268.708984	580.238281
3267.426758	528.637756
3266.145508	535.558350
3264.862305	505.440979
3263.580078	502.626923
3262.296875	453.047821
3261.014648	535.985107
3259.731445	503.959564
3258.447266	540.121460
3257.164063	496.431335
3255.879883	563.740662
3254.595703	438.315033
3253.310547	427.769928
3252.026367	508.686829
3250.741211	540.940735
3249.456055	409.797302
3248.169922	529.580383
3246.884766	398.496796
3245.598633	417.156342
3244.312500	461.080017
3243.025391	448.637177
3241.739258	457.573639
3240.452148	435.431366
3239.165039	494.871490
3237.876953	387.301422
3236.589844	508.860291
3235.301758	346.987061
3234.013672	412.236877
3232.724609	374.630951
3231.436523	418.518585
3230.147461	413.905426
3228.857422	481.048767
3227.568359	360.104004
3226.278320	367.147156
3224.989258	385.818451
3223.698242	323.105103
3222.408203	386.344299
3221.117188	372.085693
3219.826172	348.152924
3218.535156	392.000305
3217.244141	280.966461
3215.952148	386.753052
3214.660156	335.758911
3213.368164	358.307251
3212.076172	295.738159
3210.783203	382.115387
3209.490234	315.705902
3208.197266	461.983582
3206.903320	327.940643
3205.610352	309.902069
3204.316406	259.027954
3203.022461	231.357941
3201.727539	340.832794
3200.432617	353.716522
3199.137695	277.787659
3197.842773	294.544983
3196.547852	243.751160
3195.251953	304.895721
3193.956055	284.993469
3192.660156	255.457443
3191.363281	231.722031
3190.067383	279.336548
3188.770508	197.779739
3187.472656	276.228058
3186.175781	296.838196
3184.877930	300.104797
3183.580078	297.594086
3182.282227	196.867096
3180.983398	171.277390
3179.684570	282.384674
3178.385742	200.975006
3177.086914	235.063034
3175.788086	190.254913
3174.488281	120.460167
3173.188477	256.487000
3171.887695	163.637238
3170.587891	136.190643
3169.287109	135.668930
3167.986328	125.540680
3166.685547	199.962112
3165.383789	174.462372
3164.082031	193.150925
3162.780273	127.339020
3161.478516	82.674194
3160.175781	122.492630
3158.873047	156.540375
3157.570313	219.359970
3156.267578	222.683594
3154.963867	153.119995
3153.660156	143.035919
3152.356445	140.626923
3151.052734	184.229858
3149.748047	89.818863
3148.443359	110.423904
3147.138672	125.274796
3145.833984	109.472839
3144.528320	177.948685
3143.222656	41.512829
3141.916992	92.748482
3140.610352	111.427628
3139.304688	103.307602
3137.998047	121.980606
3136.691406	0.999442
3135.383789	78.980560
3134.076172	-26.643738
3132.768555	81.905945
3131.460938	81.458183
3130.153320	48.522343
3128.844727	120.695236
3127.536133	101.141350
3126.227539	10.923994
3124.917969	41.054417
3123.608398	86.449043
3122.298828	78.376404
3120.989258	87.485390
3119.678711	35.530041
3118.369141	-39.299816
3117.057617	114.801575
3115.747070	5.660223
3114.436523	89.144310
3113.125000	62.027897
3111.813477	107.351799
3110.500977	59.283020
3109.189453	70.296425
3107.876953	1.300749
3106.564453	-20.053684
3105.250977	59.524521
3103.937500	116.226936
3102.625000	1.595112
3101.310547	-42.574585
3099.997070	76.906654
3098.682617	131.663635
3097.368164	62.770004
3096.053711	35.739422
3094.739258	-0.786675
3093.423828	40.640095
3092.108398	-20.577633
3090.792969	56.940968
3089.476563	98.335197
3088.160156	90.328484
3086.843750	-33.518402
3085.527344	-33.901421
3084.210938	22.666342
3082.893555	-21.378950
3081.576172	18.087879
3080.257813	87.896912
3078.940430	89.390091
3077.622070	3.644480
3076.303711	79.104721
3074.984375	152.641541
3073.666016	72.619469
3072.346680	74.117027
3071.027344	66.140511
3069.707031	88.477524
3068.387695	4.742579
3067.067383	81.996880
3065.747070	74.025764
3064.425781	77.416031
3063.104492	46.739758
3061.783203	74.731285
3060.461914	100.820038
3059.140625	47.459106
3057.818359	75.434746
3056.496094	-2.478803
3055.173828	19.823893
3053.850586	64.798279
3052.527344	115.423676
3051.204102	177.364349
3049.880859	5.062296
3048.556641	25.453793
3047.233398	100.591248
3045.909180	49.220173
3044.583984	11.081502
3043.259766	50.323963
3041.934570	36.725163
3040.608398	68.403725
3039.283203	139.672699
3037.957031	116.635712
3036.630859	76.639786
3035.304688	129.016434
3033.978516	147.451050
3032.651367	152.690201
3031.324219	191.834076
3029.997070	114.191238
3028.668945	211.700989
3027.341797	207.506485
3026.013672	240.960144
3024.684570	268.755280
3023.356445	262.668823
3022.027344	363.814301
3020.698242	321.974640
3019.368164	379.817444
3018.039063	390.632172
3016.708984	322.492615
3015.378906	380.298187
3014.047852	385.468262
3012.717773	366.210999
3011.386719	474.686584
3010.055664	370.910187
3008.723633	361.053589
3007.392578	356.829681
3006.060547	279.409485
3004.727539	365.274750
3003.395508	312.269653
3002.062500	409.347076
3000.729492	335.722900
2999.396484	342.752838
2998.062500	323.534149
2996.728516	332.436066
2995.394531	318.845459
2994.060547	335.236237
2992.725586	349.746796
2991.390625	315.555389
2990.055664	264.522949
2988.720703	273.417358
2987.384766	254.231049
2986.048828	287.450317
2984.712891	339.365448
2983.376953	370.681030
2982.040039	405.724701
2980.703125	513.682190
2979.366211	440.242889
2978.028320	432.255554
2976.690430	454.171692
2975.352539	569.503723
2974.014648	471.817871
2972.675781	443.278137
2971.336914	594.022217
2969.998047	584.136475
2968.659180	533.184570
2967.319336	543.841675
2965.979492	591.812500
2964.639648	546.480591
2963.299805	467.589050
2961.958984	485.702881
2960.618164	535.505127
2959.277344	555.458374
2957.935547	582.858582
2956.593750	580.430298
2955.251953	598.494751
2953.910156	691.059814
2952.567383	638.321960
2951.225586	719.666626
2949.881836	856.829956
2948.539063	977.184937
2947.195313	1073.299683
2945.852539	1234.493652
2944.507813	1278.431396
2943.164063	1545.531738
2941.819336	1741.866333
2940.474609	2008.769531
2939.129883	2175.192627
2937.784180	2599.870117
2936.439453	2864.585693
2935.093750	3251.805176
2933.747070	3644.445801
2932.401367	3890.227783
2931.054688	4163.763184
2929.708008	4394.494629
2928.360352	4387.580566
2927.013672	4428.908691
2925.666016	4249.453125
2924.318359	3893.856934
2922.969727	3556.941650
2921.621094	3155.260254
2920.272461	2864.956543
2918.923828	2548.815430
2917.575195	2158.673096
2916.225586	1990.999878
2914.875977	1691.875488
2913.525391	1381.754028
2912.175781	1290.235474
2910.825195	1169.130981
2909.474609	1068.430298
2908.123047	812.324768
2906.772461	839.386292
2905.420898	760.998047
2904.069336	697.432800
2902.716797	737.437988
2901.364258	529.697998
2900.011719	523.505798
2898.659180	543.184570
2897.305664	496.339294
2895.953125	429.188202
2894.599609	339.898376
2893.245117	335.582703
2891.891602	344.187866
2890.537109	273.417084
2889.181641	291.254456
2887.827148	238.966461
2886.471680	297.382050
2885.116211	287.529297
2883.760742	301.649689
2882.405273	299.168304
2881.048828	234.013016
2879.692383	235.226624
2878.334961	206.956009
2876.978516	198.956818
2875.621094	240.689697
2874.263672	168.228317
2872.905273	228.357239
2871.547852	178.009888
2870.189453	192.095718
2868.830078	233.775482
2867.471680	155.851746
2866.112305	147.852615
2864.752930	215.253159
2863.393555	84.048744
2862.033203	144.076874
2860.672852	174.671143
2859.312500	124.396271
2857.952148	222.953415
2856.590820	216.768188
2855.229492	186.707336
2853.868164	244.790359
2852.505859	168.835205
2851.144531	87.398956
2849.782227	180.325043
2848.418945	196.154099
2847.056641	233.985062
2845.693359	205.774399
2844.330078	188.573410
2842.965820	250.208466
2841.602539	163.347015
2840.238281	147.987717
2838.874023	167.443359
2837.508789	150.251617
2836.143555	46.982121
2834.778320	121.371300
2833.413086	142.635101
2832.046875	59.552982
2830.681641	33.231411
2829.314453	23.386236
2827.948242	137.937454
2826.581055	42.105270
2825.214844	70.654465
2823.846680	51.655357
2822.479492	61.906158
2821.111328	-21.056314
2819.743164	73.251175
2818.375000	-51.706047
2817.005859	122.931297
2815.636719	45.487148
2814.267578	37.450157
2812.898438	-5.270622
2811.528320	-24.251108
2810.158203	4.215348
2808.788086	23.545246
2807.416992	77.521431
2806.046875	-5.302773
2804.675781	74.177261
2803.303711	4.141575
2801.932617	1.564785
2800.560547	17.208841
2799.188477	3.693132
2797.815430	19.324528
2796.443359	3.985259
2795.070313	32.349121
2793.696289	17.008144
2792.323242	-56.574612
2790.949219	17.268408
2789.575195	1.928706
2788.201172	1.143833
2786.826172	-12.374336
2785.451172	-34.982212
2784.076172	-33.951275
2782.701172	-0.207308
2781.325195	9.896492
2779.949219	0.006779
2778.573242	-18.965313
2777.196289	-25.219425
2775.819336	-51.448742
2774.442383	25.811098
2773.065430	-40.357994
2771.687500	-13.950352
2770.309570	5.185585
2768.931641	4.355847
2767.553711	3.522720
2766.174805	-29.953037
2764.795898	-9.029230
2763.416992	-24.370161
2762.037109	-14.335783
2760.657227	-71.350441
2759.277344	-73.998856
2757.897461	-38.614269
2756.516602	-15.922244
2755.135742	-16.779371
2753.754883	-1.348243
2752.373047	-20.312193
2750.991211	34.915192
2749.609375	-38.328564
2748.227539	16.873667
2746.844727	-18.368008
2745.461914	-73.487793
2744.079102	-79.782074
2742.696289	16.940079
2741.312500	-14.673394
2739.928711	0.694045
2738.544922	-7.429642
2737.160156	-37.223671
2735.775391	17.851654
2734.390625	34.992504
2733.005859	-23.680511
2731.620117	-35.416439
2730.234375	-25.501621
2728.848633	121.493752
2727.461914	24.965157
2726.076172	-28.256023
2724.689453	30.309994
2723.301758	-26.501589
2721.915039	100.510864
2720.527344	74.329079
2719.138672	113.002243
2717.750977	0.375324
2716.362305	130.871552
2714.973633	63.285423
2713.584961	67.718269
2712.195313	73.946144
2710.806641	-22.386526
2709.416016	151.142426
2708.026367	148.347549
2706.635742	93.405090
2705.245117	56.458565
2703.854492	62.661297
2702.462891	76.047272
2701.072266	75.049896
2699.680664	133.330490
2698.288086	40.720119
2696.896484	14.581527
2695.503906	54.877048
2694.110352	34.125366
2692.717773	11.583156
2691.324219	19.549416
2689.930664	14.951870
2688.537109	37.255981
2687.142578	45.203094
2685.748047	-13.191531
2684.353516	-26.754303
2682.958984	17.033342
2681.563477	-21.621071
2680.167969	38.265255
2678.771484	19.317682
2677.375977	23.653185
2675.979492	4.709370
2674.583008	-14.230418
2673.185547	18.735300
2671.789063	33.790653
2670.391602	13.058168
2668.993164	-61.327267
2667.595703	39.562634
2666.197266	40.287025
2664.798828	14.194460
2663.400391	9.555329
2662.000977	46.013283
2660.601563	-19.377317
2659.202148	22.423826
2657.801758	-78.658272
2656.401367	27.408657
2655.000977	20.969236
2653.600586	-39.013390
2652.199219	-43.658531
2650.797852	42.681335
2649.396484	29.096916
2647.995117	1.248016
2646.592773	51.859306
2645.190430	-16.989668
2643.787109	47.857891
2642.384766	-60.172085
2640.981445	18.904886
2639.578125	-7.145606
2638.173828	38.047215
2636.769531	52.950115
2635.365234	37.580681
2633.960938	48.911823
2632.555664	-28.738178
2631.150391	-10.287560
2629.745117	-20.307720
2628.339844	-26.770208
2626.933594	21.888119
2625.527344	4.747937
2624.121094	-23.052683
2622.713867	18.459433
2621.306641	86.602386
2619.899414	-56.667995
2618.492188	6.128888
2617.083984	-42.966053
2615.675781	26.899111
2614.266602	32.836823
2612.858398	-5.595788
2611.449219	-52.886742
2610.040039	-23.885271
2608.629883	15.743710
2607.220703	-3.161518
2605.810547	27.577629
2604.399414	-21.459253
2602.989258	9.265591
2601.578125	80.726875
2600.166992	3.357000
2598.754883	7.485054
2597.343750	50.564098
2595.930664	10.416451
2594.518555	78.253265
2593.106445	82.351868
2591.693359	-17.944128
2590.280273	48.081131
2588.866211	-13.263542
2587.452148	-42.757763
2586.038086	5.546114
2584.624023	71.504059
2583.208984	15.494203
2581.794922	-1.625190
2580.378906	-61.136356
2578.963867	22.434000
2577.547852	5.316137
2576.131836	74.711533
2574.715820	-0.664950
2573.298828	45.756943
2571.881836	-8.415537
2570.464844	39.748283
2569.047852	12.049202
2567.629883	42.551121
2566.211914	13.094577
2564.793945	-25.166368
2563.375000	33.515049
2561.956055	28.738520
2560.537109	99.712433
2559.118164	29.751007
2557.698242	14.405076
2556.278320	76.529343
2554.857422	-21.556803
2553.437500	70.463348
2552.016602	18.160791
2550.595703	23.930532
2549.173828	98.291771
2547.752930	-6.748451
2546.330078	92.199356
2544.908203	73.330673
2543.485352	56.225040
2542.063477	49.665871
2540.639648	7.972322
2539.216797	50.601013
2537.792969	77.406120
2536.369141	-2.901922
2534.945313	69.538361
2533.520508	34.890549
2532.095703	28.329088
2530.670898	37.556873
2529.245117	18.715151
2527.819336	78.792816
2526.393555	68.712128
2524.967773	46.362377
2523.541016	29.277506
2522.114258	52.498909
2520.687500	19.647568
2519.260742	-9.689833
2517.833008	24.026379
2516.405273	103.249588
2514.976563	112.418526
2513.547852	13.070425
2512.119141	67.744621
2510.690430	33.171219
2509.261719	75.571182
2507.832031	88.223183
2506.402344	27.433279
2504.971680	101.269211
2503.541016	89.433769
2502.110352	26.926111
2500.679688	97.217438
2499.248047	62.676506
2497.816406	80.537849
2496.384766	66.961754
2494.953125	65.608521
2493.520508	46.800865
2492.087891	24.508564
2490.655273	30.137146
2489.221680	11.341728
2487.788086	6.503223
2486.354492	22.587584
2484.919922	54.353069
2483.485352	49.502991
2482.050781	109.127197
2480.616211	-40.339363
2479.180664	12.307853
2477.745117	54.483097
2476.309570	39.180759
2474.873047	62.181068
2473.437500	102.574608
2472.000000	47.243523
2470.563477	16.289085
2469.125977	-12.915165
2467.688477	37.888535
2466.250977	133.877441
2464.812500	104.661606
2463.374023	7.671152
2461.935547	74.062225
2460.497070	88.303940
2459.057617	97.327400
2457.618164	42.088360
2456.177734	103.203827
2454.738281	98.325203
2453.297852	39.642174
2451.857422	33.039455
2450.416016	45.522350
2448.974609	59.732914
2447.533203	13.236837
2446.091797	63.856632
2444.649414	27.776304
2443.207031	92.235573
2441.764648	102.947945
2440.321289	85.934097
2438.877930	39.477928
2437.434570	115.999382
2435.990234	128.423538
2434.546875	7.541489
2433.101563	111.711960
2431.657227	80.862373
2430.211914	81.165764
2428.766602	97.035316
2427.321289	66.202126
2425.875977	28.463076
2424.429688	115.207100
2422.983398	32.531849
2421.536133	46.659145
2420.089844	97.060532
2418.642578	62.799633
2417.194336	109.720940
2415.747070	160.074921
2414.298828	68.848068
2412.849609	101.927460
2411.401367	86.673439
2409.952148	126.634010
2408.502930	56.179523
2407.052734	109.924011
2405.603516	80.880043
2404.152344	81.153465
2402.703125	98.660187
2401.251953	173.025803
2399.800781	37.167091
2398.349609	37.442322
2396.898438	35.993595
2395.445313	112.028419
2393.994141	108.840660
2392.541016	67.787338
2391.087891	83.536209
2389.634766	68.308342
2388.181641	51.364861
2386.728516	46.465168
2385.275391	93.149551
2383.820313	53.858650
2382.365234	119.426979
2380.910156	40.619446
2379.455078	66.645035
2378.000000	3.335903
2376.544922	32.790329
2375.089844	127.479507
2373.632813	0.673647
2372.175781	67.867073
2370.718750	40.650494
2369.261719	99.227524
2367.804688	77.158470
2366.347656	103.116684
2364.888672	31.328169
2363.429688	105.283600
2361.972656	55.801174
2360.513672	68.028450
2359.054688	-15.694770
2357.593750	-18.877108
2356.134766	48.156532
2354.673828	22.700420
2353.214844	38.338352
2351.753906	36.853481
2350.292969	4.565479
2348.832031	-94.435928
2347.369141	28.972828
2345.908203	46.297314
2344.445313	5.478616
2342.984375	29.635967
2341.521484	-2.620121
2340.058594	1.020762
2338.593750	26.869911
2337.130859	33.916805
2335.667969	58.037689
2334.203125	-8.348001
2332.738281	106.247284
2331.273438	51.823051
2329.808594	52.025555
2328.343750	31.753231
2326.878906	38.779888
2325.412109	93.554619
2323.945313	-32.432583
2322.478516	-62.905342
2321.011719	12.305414
2319.544922	-2.830466
2318.078125	-26.480337
2316.611328	14.606171
2315.142578	2.881309
2313.673828	-37.786007
2312.205078	-22.261002
2310.736328	10.276632
2309.267578	-9.952028
2307.798828	2.151286
2306.328125	-40.182625
2304.859375	-34.883617
2303.388672	-26.186874
2301.917969	-17.494940
2300.447266	-5.408769
2298.974609	-12.020319
2297.503906	-52.610142
2296.031250	-3.158551
2294.560547	80.236404
2293.087891	-57.132519
2291.615234	-17.899435
2290.142578	-4.142094
2288.667969	-12.450888
2287.195313	-20.758192
2285.720703	-18.885660
2284.246094	3.335104
2282.773438	-3.279058
2281.296875	12.146656
2279.822266	0.446552
2278.347656	19.251060
2276.871094	2.469529
2275.396484	-4.144352
2273.919922	7.872158
2272.443359	-47.843781
2270.966797	-54.447197
2269.488281	10.035218
2268.011719	-25.346201
2266.533203	-57.330635
2265.056641	-62.240910
2263.578125	10.641306
2262.099609	-33.170837
2260.619141	-33.014843
2259.140625	-31.170662
2257.662109	24.743563
2256.181641	-73.102592
2254.701172	33.467613
2253.220703	15.027051
2251.740234	-30.422083
2250.259766	-28.588526
2248.777344	49.190819
2247.296875	-26.614834
2245.814453	-6.229466
2244.332031	-49.948372
2242.849609	-7.646557
2241.367188	24.520588
2239.884766	-32.667885
2238.400391	6.230521
2236.917969	-52.619144
2235.433594	-3.627175
2233.949219	-0.133285
2232.464844	-25.270042
2230.978516	21.999399
2229.494141	-83.933693
2228.009766	7.082637
2226.523438	-51.693321
2225.037109	22.454506
2223.550781	15.836909
2222.064453	34.444981
2220.576172	-12.525512
2219.089844	-12.412526
2217.601563	22.992252
2216.115234	-0.428669
2214.626953	70.235046
2213.138672	58.568871
2211.648438	-33.697739
2210.160156	-20.157602
2208.669922	33.662098
2207.181641	43.823944
2205.691406	-46.693390
2204.201172	40.645901
2202.710938	-54.868755
2201.218750	13.988659
2199.728516	50.962147
2198.236328	-54.558147
2196.744141	34.363747
2195.251953	24.391764
2193.759766	-47.559914
2192.267578	-24.017038
2190.775391	7.887446
2189.281250	-17.144379
2187.787109	-13.712061
2186.294922	23.187037
2184.800781	-0.163909
2183.304688	31.696886
2181.810547	-1.684406
2180.316406	-23.348511
2178.820313	15.180435
2177.324219	53.692429
2175.828125	-41.504429
2174.332031	5.354392
2172.835938	-24.648842
2171.337891	35.546078
2169.841797	70.667976
2168.343750	-1.071063
2166.845703	10.673535
2165.347656	-30.989344
2163.849609	75.855095
2162.351563	-5.841984
2160.851563	44.247192
2159.353516	-15.736783
2157.853516	-29.018986
2156.353516	49.374813
2154.853516	22.750395
2153.353516	-8.863187
2151.851563	-35.467892
2150.351563	57.846436
2148.849609	-43.692917
2147.347656	12.958118
2145.845703	-20.293482
2144.343750	3.045324
2142.839844	4.744905
2141.337891	49.690170
2139.833984	24.767321
2138.330078	-30.076248
2136.826172	-3.441855
2135.322266	38.138515
2133.818359	19.878603
2132.314453	-6.682529
2130.808594	-29.912104
2129.302734	33.223228
2127.796875	24.935137
2126.291016	-9.911882
2124.785156	8.364054
2123.279297	29.949711
2121.771484	18.344675
2120.263672	-52.970425
2118.757813	68.111267
2117.250000	-3.188419
2115.740234	-19.756702
2114.232422	16.714989
2112.724609	13.401772
2111.214844	38.252197
2109.705078	-3.163008
2108.195313	34.925442
2106.685547	24.982143
2105.175781	-32.963852
2103.664063	26.617897
2102.154297	5.094473
2100.642578	51.406162
2099.130859	10.035325
2097.619141	-37.935150
2096.107422	-16.447895
2094.595703	-11.501201
2093.082031	28.148129
2091.570313	9.947769
2090.056641	-14.854528
2088.542969	-46.255142
2087.029297	14.829298
2085.513672	24.706802
2084.000000	32.927727
2082.484375	3.186452
2080.968750	57.604660
2079.455078	-8.425584
2077.937500	19.580635
2076.421875	11.295869
2074.906250	-6.879231
2073.388672	-3.620320
2071.873047	42.482616
2070.355469	29.250149
2068.837891	20.963146
2067.320313	37.382351
2065.800781	32.387032
2064.283203	-46.692001
2062.763672	107.987404
2061.244141	25.630447
2059.724609	68.348213
2058.205078	12.348591
2056.685547	23.799906
2055.164063	-27.238415
2053.644531	-7.567482
2052.123047	33.461220
2050.601563	-12.623601
2049.080078	39.886421
2047.558594	15.169636
2046.035156	92.283867
2044.513672	5.168014
2042.990234	34.641838
2041.466797	23.069382
2039.943359	-19.678505
2038.419922	29.464460
2036.896484	16.254255
2035.371094	-14.991910
2033.847656	-11.795054
2032.322266	-51.223034
2030.796875	-0.493694
2029.271484	28.910908
2027.744141	-17.059828
2026.218750	-15.513080
2024.691406	67.913208
2023.164063	35.055275
2021.636719	46.406895
2020.109375	21.746147
2018.582031	3.638703
2017.054688	28.071987
2015.525391	8.331319
2013.996094	34.385281
2012.468750	-37.671562
2010.939453	-11.622579
2009.408203	9.511225
2007.878906	-13.482985
2006.347656	-3.796801
2004.818359	18.949974
2003.287109	20.456974
2001.755859	15.430839
2000.224609	36.521835
1998.691406	39.650753
1997.160156	11.775082
1995.626953	-37.298145
1994.093750	89.792633
1992.560547	-14.722363
1991.027344	51.986580
1989.494141	38.797153
1987.960938	1.166383
1986.425781	-41.338718
1984.890625	-7.266121
1983.355469	-57.899395
1981.820313	20.123766
1980.285156	-25.614363
1978.750000	-9.484628
1977.212891	-3.127186
1975.675781	-45.584259
1974.138672	64.880608
1972.601563	27.302206
1971.064453	10.875236
1969.527344	12.335419
1967.988281	15.418439
1966.451172	-10.751855
1964.912109	3.703495
1963.373047	-35.452290
1961.833984	4.982571
1960.292969	45.399151
1958.753906	-35.954048
1957.212891	-2.041595
1955.671875	-47.656532
1954.130859	18.687841
1952.589844	-44.758968
1951.048828	-12.501712
1949.505859	-30.521656
1947.964844	21.168024
1946.421875	53.386414
1944.878906	19.154575
1943.335938	80.517067
1941.792969	21.994162
1940.248047	-39.745399
1938.705078	96.061974
1937.160156	-59.556900
1935.615234	-14.434338
1934.070313	20.959698
1932.525391	28.835903
1930.978516	88.463722
1929.433594	12.231881
1927.886719	-21.935596
1926.339844	-25.379316
1924.792969	39.051605
1923.246094	19.435537
1921.699219	-47.021210
1920.150391	22.214214
1918.601563	12.296582
1917.052734	75.030098
1915.503906	19.907444
1913.955078	-27.125698
1912.406250	4.916640
1910.855469	-29.193075
1909.306641	-11.682017
1907.755859	-28.041267
1906.205078	-16.989815
1904.654297	13.396784
1903.101563	17.985712
1901.550781	-4.817979
1899.998047	54.536232
1898.447266	-23.025105
1896.894531	0.881894
1895.339844	-20.297092
1893.787109	8.424310
1892.234375	-19.187799
1890.679688	-14.614151
1889.125000	31.776510
1887.570313	23.469051
1886.015625	-12.169818
1884.460938	26.148972
1882.906250	-25.551016
1881.349609	38.460659
1879.792969	-45.354412
1878.236328	-23.129040
1876.679688	34.414135
1875.123047	3.628386
1873.566406	38.666435
1872.007813	-6.554895
1870.449219	-0.414331
1868.890625	79.515625
1867.332031	-45.885254
1865.773438	-65.402237
1864.214844	56.170486
1862.654297	-17.861101
1861.093750	58.776871
1859.533203	53.667786
1857.972656	22.928719
1856.412109	-17.408951
1854.851563	75.172005
1853.289063	23.630493
1851.728516	18.525642
1850.166016	48.627083
1848.603516	43.515949
1847.039063	25.608313
1845.476563	39.692188
1843.914063	60.164478
1842.349609	15.083205
1840.785156	-10.801653
1839.220703	51.210842
1837.656250	-0.236113
1836.091797	31.396681
1834.525391	24.687382
1832.958984	9.995958
1831.392578	38.409946
1829.826172	92.346718
1828.259766	50.519539
1826.693359	50.187092
1825.125000	-26.707487
1823.558594	-27.026884
1821.990234	-35.319523
1820.421875	34.497478
1818.853516	5.474675
1817.285156	3.549818
1815.714844	-6.341039
1814.144531	68.185043
1812.576172	2.548612
1811.005859	-35.997269
1809.433594	19.383839
1807.863281	-33.474922
1806.292969	53.702099
1804.720703	75.620842
1803.148438	11.645939
1801.576172	28.791452
1800.003906	14.133076
1798.431641	-37.077953
1796.857422	16.612947
1795.285156	25.794329
1793.710938	-1.564225
1792.136719	-11.443151
1790.562500	-3.853303
1788.986328	-13.730230
1787.412109	-15.668240
1785.835938	17.303589
1784.259766	31.222643
1782.683594	30.859205
1781.107422	1.949494
1779.531250	-36.462772
1777.955078	2.814801
1776.376953	-10.225975
1774.798828	22.689478
1773.220703	3.311054
1771.642578	25.120825
1770.064453	-0.586395
1768.484375	18.046677
1766.906250	-28.228531
1765.326172	-28.590418
1763.746094	-13.130609
1762.166016	41.870522
1760.583984	-5.957051
1759.003906	-6.326849
1757.421875	-8.278609
1755.841797	49.833885
1754.259766	3.621041
1752.675781	41.165390
1751.093750	13.927616
1749.511719	38.818211
1747.927734	-61.043839
1746.343750	-7.733415
1744.759766	-39.676895
1743.175781	75.148811
1741.591797	-24.641285
1740.005859	28.614767
1738.421875	39.267799
1736.835938	8.920628
1735.250000	58.982018
1733.664063	-23.368450
1732.076172	50.313896
1730.490234	45.193974
1728.902344	18.024014
1727.316406	102.674141
1725.728516	81.800270
1724.138672	105.009964
1722.550781	71.552856
1720.962891	115.209442
1719.373047	97.494576
1717.783203	133.262573
1716.193359	164.298004
1714.603516	189.031433
1713.013672	229.472870
1711.421875	246.324097
1709.830078	311.875336
1708.240234	405.675110
1706.648438	433.472351
1705.054688	454.976807
1703.462891	460.773346
1701.871094	501.097870
1700.277344	480.204407
1698.683594	471.870789
1697.089844	416.482361
1695.496094	420.711243
1693.902344	285.390228
1692.306641	267.697235
1690.710938	303.299957
1689.117188	211.962418
1687.521484	134.762360
1685.923828	143.742538
1684.328125	130.794968
1682.730469	38.002525
1681.134766	122.134903
1679.537109	81.029152
1677.939453	102.529114
1676.341797	83.346222
1674.742188	98.580559
1673.144531	91.916687
1671.544922	88.382362
1669.945313	52.024662
1668.345703	18.807709
1666.746094	34.040859
1665.144531	132.060501
1663.544922	44.185383
1661.943359	65.650513
1660.341797	44.955853
1658.740234	57.047592
1657.138672	20.758879
1655.535156	-37.357090
1653.933594	48.059067
1652.330078	18.034126
1650.726563	36.357830
1649.123047	3.231014
1647.519531	62.074104
1645.914063	27.398438
1644.310547	108.024193
1642.705078	35.972057
1641.099609	20.012486
1639.494141	28.971428
1637.888672	17.691193
1636.281250	59.330700
1634.675781	-29.749105
1633.068359	24.329771
1631.460938	48.835461
1629.853516	31.346354
1628.244141	29.412003
1626.636719	35.251495
1625.027344	17.778482
1623.417969	11.189679
1621.808594	-31.123779
1620.199219	-54.781738
1618.589844	-30.293215
1616.978516	32.996826
1615.369141	27.968706
1613.757813	-17.402988
1612.146484	27.230543
1610.535156	-24.324644
1608.921875	7.887267
1607.310547	-38.988644
1605.697266	-3.684439
1604.083984	87.401360
1602.470703	-2.845480
1600.857422	16.940788
1599.242188	-43.822464
1597.628906	27.069525
1596.013672	18.972467
1594.398438	17.071949
1592.783203	15.173532
1591.167969	25.655539
1589.550781	9.836231
1587.935547	17.224665
1586.318359	41.620796
1584.701172	-62.309464
1583.083984	20.831867
1581.466797	-13.506831
1579.847656	-24.654253
1578.230469	38.350903
1576.611328	-42.296974
1574.992188	73.187164
1573.373047	31.162584
1571.751953	121.891914
1570.132813	-26.596302
1568.511719	40.969002
1566.890625	-34.941349
1565.269531	-10.578918
1563.648438	-23.228472
1562.027344	14.998564
1560.404297	20.846758
1558.783203	-59.593735
1557.160156	-27.539478
1555.537109	10.664289
1553.912109	-37.380306
1552.289063	11.590580
1550.664063	17.443892
1549.041016	-27.487938
1547.416016	30.688053
1545.791016	-54.219452
1544.164063	-16.051554
1542.539063	-45.554207
1540.912109	29.496256
1539.287109	-44.572403
1537.660156	51.964600
1536.033203	73.181549
1534.404297	-3.915466
1532.777344	49.559155
1531.148438	18.566177
1529.519531	-49.253593
1527.890625	-20.352404
1526.261719	20.814932
1524.632813	-19.341530
1523.001953	-5.795418
1521.373047	59.886192
1519.742188	25.886877
1518.111328	-0.431624
1516.478516	10.044227
1514.847656	-42.302353
1513.214844	35.586140
1511.583984	39.929337
1509.951172	-4.726718
1508.318359	50.149124
1506.683594	48.372082
1505.050781	32.825821
1503.416016	5.049086
1501.783203	43.061638
1500.148438	30.593153
1498.511719	21.190660
1496.876953	-55.467655
1495.242188	23.803186
1493.605469	-11.560349
1491.968750	-40.795338
1490.332031	81.199188
1488.695313	35.164715
1487.058594	51.750416
1485.419922	104.967247
1483.781250	16.233740
1482.142578	8.408811
1480.503906	-13.139360
1478.865234	21.756479
1477.226563	12.419594
1475.585938	-10.631124
1473.945313	28.824245
1472.304688	-47.550831
1470.664063	16.279432
1469.023438	67.900009
1467.380859	35.739983
1465.740234	-29.901520
1464.097656	3.438250
1462.455078	58.075371
1460.812500	42.695526
1459.167969	37.975246
1457.525391	5.881229
1455.880859	92.420570
1454.236328	13.202785
1452.591797	101.231186
1450.947266	126.915581
1449.302734	52.308830
1447.656250	55.212620
1446.009766	108.239494
1444.363281	146.062683
1442.716797	142.882660
1441.070313	135.153870
1439.421875	101.633720
1437.775391	203.163925
1436.126953	168.133774
1434.478516	239.282959
1432.830078	183.039230
1431.179688	198.072586
1429.531250	176.727661
1427.880859	252.375916
1426.230469	241.641083
1424.580078	246.061264
1422.929688	255.026230
1421.279297	220.083740
1419.626953	166.995010
1417.974609	172.955383
1416.322266	213.718048
1414.669922	156.136887
1413.017578	133.370132
1411.363281	74.325508
1409.710938	171.027191
1408.056641	130.145111
1406.402344	108.929405
1404.748047	72.617630
1403.091797	28.772444
1401.437500	39.317886
1399.781250	126.868996
1398.125000	61.917103
1396.468750	58.877003
1394.812500	69.423019
1393.154297	24.148355
1391.498047	33.196594
1389.839844	46.769260
1388.181641	30.186018
1386.523438	51.298309
1384.865234	46.785591
1383.205078	22.691023
1381.544922	54.348904
1379.884766	9.185139
1378.224609	-16.380222
1376.564453	4.739371
1374.904297	36.390236
1373.242188	24.391331
1371.580078	65.060310
1369.919922	19.975069
1368.255859	89.210533
1366.593750	81.737312
1364.931641	69.761459
1363.267578	39.759537
1361.603516	137.498901
1359.939453	87.973053
1358.275391	92.544571
1356.611328	74.592720
1354.945313	29.628021
1353.279297	25.215034
1351.613281	-3.203978
1349.947266	10.405038
1348.281250	-8.990145
1346.615234	-50.870117
1344.947266	4.738566
1343.279297	-56.607262
1341.611328	55.943714
1339.943359	-51.833725
1338.275391	-23.223396
1336.605469	-6.603887
1334.935547	-34.914967
1333.267578	-69.199699
1331.597656	-15.144801
1329.925781	16.442240
1328.255859	9.114937
1326.583984	-23.637011
1324.912109	-18.978624
1323.240234	8.112674
1321.568359	36.691685
1319.896484	44.336163
1318.224609	-16.762859
1316.550781	-43.466702
1314.876953	-20.859484
1313.203125	-68.451958
1311.529297	-63.759144
1309.853516	-73.992447
1308.179688	-78.247635
1306.503906	-12.361445
1304.828125	19.186834
1303.152344	74.591408
1301.474609	18.130402
1299.798828	-72.595970
1298.121094	2.184134
1296.443359	-30.368469
1294.765625	-18.202398
1293.087891	-1.568275
1291.410156	22.509716
1289.730469	1.909338
1288.050781	-5.279415
1286.371094	-33.299599
1284.691406	13.103167
1283.011719	-49.121426
1281.332031	-45.865112
1279.650391	-26.246447
1277.968750	-8.119190
1276.287109	-67.297691
1274.605469	-43.216526
1272.921875	23.951313
1271.240234	-14.386119
1269.556641	-54.188290
1267.873047	-62.784695
1266.189453	8.799868
1264.505859	-23.548878
1262.820313	-38.070663
1261.134766	-94.127594
1259.451172	56.040039
1257.765625	25.207438
1256.078125	41.841999
1254.392578	-6.757317
1252.705078	-59.778416
1251.019531	5.775513
1249.332031	-53.144745
1247.642578	25.719835
1245.955078	63.087841
1244.267578	73.792450
1242.578125	84.496796
1240.888672	59.680168
1239.199219	125.137939
1237.509766	95.892189
1235.818359	38.560776
1234.128906	98.076851
1232.437500	11.207536
1230.746094	112.098717
1229.054688	43.003536
1227.363281	40.427834
1225.669922	8.313707
1223.976563	4.276870
1222.283203	-10.090911
1220.589844	-12.639516
1218.896484	-18.135576
1217.203125	23.593245
1215.507813	-24.684877
1213.812500	8.184801
1212.117188	26.296980
1210.421875	-29.313581
1208.726563	3.545345
1207.029297	-3.396865
1205.332031	16.188587
1203.636719	-14.317878
1201.937500	24.414516
1200.240234	46.935303
1198.542969	25.284159
1196.843750	16.892622
1195.144531	39.409786
1193.445313	16.311935
1191.746094	46.179966
1190.046875	6.918999
1188.345703	73.540047
1186.644531	85.745781
1184.943359	-19.625463
1183.242188	-39.726059
1181.541016	28.327742
1179.837891	111.043312
1178.136719	36.603317
1176.433594	6.241644
1174.730469	100.658989
1173.027344	35.081501
1171.322266	28.222378
1169.619141	82.976295
1167.914063	87.846939
1166.208984	22.337717
1164.503906	36.019150
1162.796875	84.872871
1161.091797	20.877634
1159.384766	59.462936
1157.677734	83.386925
1155.970703	114.624550
1154.263672	44.829929
1152.554688	115.588722
1150.847656	127.780533
1149.138672	52.181431
1147.429688	67.311653
1145.720703	60.499268
1144.009766	107.794052
1142.300781	76.127235
1140.589844	130.709702
1138.878906	93.210373
1137.167969	124.393723
1135.455078	119.049873
1133.744141	129.772644
1132.031250	171.153793
1130.318359	119.096603
1128.605469	170.680862
1126.892578	174.094254
1125.179688	143.955154
1123.464844	189.671844
1121.750000	190.167023
1120.035156	160.048172
1118.320313	231.971237
1116.605469	152.312302
1114.888672	190.699966
1113.171875	231.985504
1111.455078	239.759201
1109.738281	246.074478
1108.021484	269.856079
1106.302734	265.976929
1104.585938	269.374512
1102.867188	277.136536
1101.148438	249.989059
1099.429688	291.197968
1097.708984	205.907944
1095.990234	168.619812
1094.269531	326.078278
1092.548828	249.553787
1090.828125	277.648468
1089.105469	305.732178
1087.384766	272.820679
1085.662109	322.668610
1083.939453	262.192993
1082.216797	298.962799
1080.492188	284.942169
1078.769531	346.348450
1077.044922	313.472168
1075.320313	335.702026
1073.595703	331.831451
1071.871094	310.572052
1070.146484	337.134094
1068.419922	285.463013
1066.693359	284.502441
1064.966797	183.633545
1063.240234	297.057343
1061.513672	219.384964
1059.785156	183.709412
1058.056641	185.662949
1056.328125	106.616608
1054.599609	176.550430
1052.871094	158.261017
1051.140625	145.761246
1049.412109	137.600510
1047.681641	171.343933
1045.951172	96.730843
1044.218750	133.355804
1042.488281	115.093880
1040.755859	102.613838
1039.023438	117.560776
1037.291016	125.285103
1035.558594	98.380028
1033.826172	113.314255
1032.091797	141.220291
1030.357422	125.859802
1028.623047	110.504227
1026.888672	56.242512
1025.154297	102.861588
1023.417969	143.697693
1021.681641	142.747849
1019.945313	104.358696
1018.208984	140.844025
1016.472656	106.785828
1014.734375	141.812912
1012.998047	136.538940
1011.259766	75.169014
1009.521484	75.660492
1007.783203	165.291046
1006.042969	73.762001
1004.302734	138.919418
1002.564453	83.350922
1000.824219	80.956543
999.082031	68.507820
997.341797	15.855514
995.599609	88.122398
993.859375	64.189400
992.117188	129.234818
990.373047	88.083290
988.630859	135.877625
986.886719	86.132385
985.144531	118.129677
983.400391	39.734634
981.656250	81.755287
979.910156	113.725784
978.166016	78.349403
976.419922	95.978439
974.673828	94.981964
972.927734	71.076729
971.181641	45.747311
969.433594	106.286514
967.687500	105.275703
965.939453	27.021614
964.191406	53.193863
962.441406	92.220268
960.693359	71.187828
958.943359	101.611618
957.195313	82.008110
955.445313	150.980255
953.693359	105.660316
951.943359	67.495094
950.191406	65.034042
948.441406	46.868999
946.689453	35.843712
944.935547	70.474854
943.183594	59.441559
941.431641	56.965549
939.677734	34.526344
937.923828	74.814140
936.169922	88.002243
934.414063	102.606056
932.660156	21.752691
930.904297	64.841446
929.148438	42.405491
927.392578	12.856676
925.636719	38.826736
923.878906	33.475140
922.123047	104.948364
920.365234	89.619217
918.607422	71.447975
916.849609	61.810951
915.089844	107.613014
913.330078	51.064346
911.572266	38.582783
909.812500	40.308403
908.050781	90.319046
906.291016	52.264153
904.529297	29.838034
902.767578	-3.938063
901.005859	97.106735
899.244141	33.527348
897.482422	32.382580
895.718750	24.143295
893.957031	31.498449
892.193359	62.944340
890.427734	12.172884
888.664063	52.101349
886.898438	-52.487316
885.134766	27.084854
883.369141	15.993612
881.603516	-34.737522
879.835938	9.380572
878.070313	61.964825
876.302734	23.975296
874.535156	60.964897
872.767578	47.022976
871.000000	-22.059225
869.230469	17.728882
867.460938	29.229469
865.693359	26.589918
863.921875	18.296721
862.152344	35.423981
860.382813	24.297701
858.611328	-0.945896
856.839844	30.273993
855.068359	-6.259307
853.296875	34.813885
851.523438	-14.409231
849.751953	-14.258738
847.978516	-22.572525
846.205078	2.942899
844.431641	27.032959
842.656250	-10.888514
840.880859	39.949589
839.107422	9.073168
837.332031	65.507240
835.554688	23.366735
833.779297	-8.908485
832.001953	-5.994968
830.226563	15.201292
828.447266	49.043236
826.669922	25.207996
824.892578	74.488457
823.113281	104.063530
821.333984	59.136723
819.554688	101.337936
817.775391	143.515930
815.996094	87.359116
814.214844	168.828461
812.435547	209.545868
810.654297	205.327850
808.871094	361.075897
807.089844	432.575531
805.306641	525.079102
803.525391	721.309814
801.742188	782.856873
799.958984	915.860352
798.173828	858.208984
796.390625	883.243408
794.605469	685.533752
792.820313	566.333252
791.035156	431.777618
789.248047	357.471558
787.462891	290.190948
785.675781	228.532303
783.888672	182.285019
782.101563	138.850632
780.314453	123.398499
778.525391	106.550926
776.736328	134.435455
774.947266	77.057381
773.158203	69.998550
771.369141	114.622910
769.578125	37.722481
767.789063	8.324281
765.998047	22.210114
764.207031	38.877319
762.414063	47.161545
760.623047	-22.685051
758.830078	-13.003738
757.037109	21.769979
755.244141	-4.817686
753.451172	-9.095709
751.656250	-14.768678
749.863281	-7.903470
748.068359	10.099155
746.271484	-63.823547
744.476563	-23.545496
742.681641	-45.929726
740.884766	1.279733
739.087891	-60.066128
737.291016	1.031425
735.494141	-90.891571
733.695313	-47.896057
731.896484	2.029385
730.097656	-21.735462
728.298828	-70.505577
726.500000	-37.286915
724.701172	-8.251932
722.900391	1.326277
721.099609	-2.985985
719.298828	-65.599205
717.496094	-40.754753
715.695313	-81.136063
713.892578	-21.622181
712.089844	-14.838385
710.287109	19.673191
708.484375	-63.667919
706.679688	-20.847397
704.876953	19.181870
703.072266	-44.712658
701.267578	-40.710373
699.460938	-18.708208
697.656250	-39.635967
695.849609	-45.329018
694.042969	-28.877802
692.236328	-17.968555
690.429688	-37.496975
688.621094	-50.102058
686.812500	11.963882
685.005859	24.236502
683.195313	-17.397709
681.386719	23.894115
679.578125	-31.536236
677.767578	-60.699272
675.957031	9.575310
674.146484	-40.291527
672.333984	38.231522
670.523438	-15.757923
668.710938	-35.230392
666.898438	-6.414452
665.085938	-3.812345
663.273438	-26.028069
661.458984	1.393220
659.644531	37.073486
657.830078	3.845686
656.015625	28.493160
654.201172	2.172418
652.384766	-7.610595
650.570313	17.030285
648.753906	59.556221
646.935547	29.133749
645.119141	62.013699
643.300781	-28.911774
641.484375	13.599061
639.666016	18.972734
637.847656	25.722179
636.027344	3.612296
634.208984	28.231403
632.388672	7.512048
630.568359	10.153433
628.748047	1.813176
626.925781	-3.773342
625.105469	34.566879
623.283203	15.262950
621.460938	78.286034
619.636719	54.876225
617.814453	-0.058219
615.990234	75.281670
614.167969	-19.372755
612.343750	21.689484
610.517578	1.085260
608.693359	13.371081
606.867188	66.742836
605.041016	3.715324
603.214844	83.087776
601.388672	67.998352
599.562500	41.975826
597.734375	35.123905
595.906250	66.577850
594.078125	82.983757
592.250000	46.072605
590.419922	85.726830
588.591797	47.479824
586.761719	125.386047
584.931641	44.819771
583.099609	42.137466
581.269531	77.693382
579.437500	79.116997
577.605469	121.490242
575.773438	77.895203
573.941406	83.436623
572.107422	57.617027
570.273438	94.540421
568.439453	105.555641
566.605469	101.583435
564.771484	71.732719
562.935547	135.906494
561.101563	144.218384
559.265625	125.302261
557.427734	128.188477
555.591797	152.861771
553.753906	151.679260
551.917969	126.017731
550.080078	139.826141
548.240234	138.680679
546.402344	153.862289
544.562500	170.408569
542.724609	144.827805
540.884766	160.033142
539.042969	152.150497
537.203125	155.147888
535.361328	117.420609
533.519531	116.376549
531.677734	31.194361
529.835938	80.402672
527.994141	63.124702
526.150391	82.490051
524.306641	19.138609
522.462891	-8.921589
520.619141	55.217037
518.773438	21.767511
516.927734	52.026142
515.082031	37.583176
513.236328	32.640247
511.390625	-41.341057
509.542969	13.326884
507.697266	19.261171
505.849609	69.860344
504.000000	63.633873
502.152344	84.473900
500.302734	62.048702
498.455078	8.552552
496.605469	103.774376
494.753906	30.053205
492.904297	53.652672
491.052734	5.668060
489.203125	48.198006
487.351563	42.119709
485.498047	25.261007
483.646484	13.821764
481.792969	21.293139
479.939453	13.937506
478.085938	28.178780
476.232422	19.506538
474.376953	-9.366908
472.523438	-20.692604
470.667969	-18.522324
468.812500	61.798702
466.955078	84.184418
465.099609	-15.965483
463.242188	-68.934914
461.384766	1.966023
459.527344	67.468010
457.667969	15.906974
455.810547	6.080797
453.951172	31.240358
452.091797	-41.746273
450.232422	-1.771062
448.371094	-8.834960
446.511719	10.990407
444.650391	20.076271
442.789063	11.713141
440.927734	0.682652
439.064453	-0.930108
437.201172	-37.423931
435.337891	-25.580624
433.474609	34.567818
431.611328	38.370369
429.748047	-35.591518
427.882813	37.968811
426.017578	9.641045
424.152344	-44.122612
422.285156	42.830120
420.419922	-41.699680
418.552734	6.402960
416.685547	25.040962
414.818359	-39.310989
412.949219	30.210690
411.082031	-28.738047
409.212891	11.343952
407.343750	-35.513439
405.472656	52.713226
403.603516	16.583750
401.732422	23.251791
399.861328	75.359566
397.990234	23.249392
396.119141	12.577174
394.246094	13.938726
392.375000	16.641834
390.501953	-36.706985
388.628906	-27.303541
386.753906	6.120441
384.880859	31.531752
383.005859	8.930585
381.130859	-14.987717
379.253906	6.434553
377.378906	-1.468856
375.501953	1.297171
373.626953	-23.910164
371.748047	-33.117134
369.871094	-3.703754
367.994141	8.393189
366.115234	7.178971
364.236328	29.918818
362.357422	15.399228
360.478516	19.507397
358.597656	39.572445
356.716797	-18.811926
354.835938	13.212741
352.955078	-11.921638
351.074219	25.396347
349.191406	4.250038
347.308594	-3.611300
345.425781	-15.457729
343.542969	5.880612
341.658203	7.297205
339.775391	-0.584170
337.890625	41.939674
336.005859	-44.211548
334.119141	11.544354
332.234375	16.887133
330.347656	44.748192
328.460938	38.131485
326.574219	6.332417
324.685547	-24.141836
322.798828	-58.593182
320.910156	-16.258581
319.021484	-4.404380
317.132813	10.071465
315.242188	-0.615960
313.351563	7.197581
311.460938	-20.721518
309.570313	-6.343883
307.679688	9.323575
305.787109	32.887772
303.896484	-10.972843
302.003906	9.885571
300.111328	-28.727133
298.216797	-19.819757
296.322266	-53.193413
294.429688	-13.999305
292.535156	15.905246
290.638672	-45.267136
288.744141	28.077610
286.847656	-6.778945
284.951172	13.707346
283.054688	7.778827
281.158203	-23.230942
279.259766	-29.242397
277.361328	-3.688876
275.462891	-25.606186
273.564453	-47.567333
271.666016	-19.554607
269.765625	4.440862
267.865234	-8.473529
265.964844	-20.128012
264.064453	-30.525339
262.162109	2.406668
260.261719	8.965561
258.359375	28.594847
256.457031	-7.042808
254.552734	8.494751
252.650391	0.308476
250.746094	-9.265755
248.841797	-30.731705
246.937500	39.604115
245.031250	17.967720
243.126953	-22.113474
241.220703	-29.477255
239.314453	41.749527
237.406250	-3.835227
235.500000	-0.999183
233.591797	-20.544399
231.683594	25.323868
229.775391	10.810546
227.865234	56.433971
225.957031	29.914679
224.046875	13.762390
222.136719	-3.809820
220.226563	-0.560764
218.314453	-10.520994
216.402344	23.862177
214.490234	29.332895
212.578125	-12.394403
210.666016	39.861279
208.751953	-28.264267
206.839844	21.073921
204.925781	2.322495
203.009766	51.326874
201.095703	-14.727957
