#Wave		#Intensity
4001.644531	44.712097
4000.500000	-26.716799
3999.354492	8.688807
3998.209961	-36.700100
3997.064453	64.156090
3995.918945	3.481446
3994.772461	14.821671
3993.626953	-19.661180
3992.480469	9.110961
3991.333984	-47.180363
3990.187500	55.698040
3989.040039	49.539524
3987.893555	25.939495
3986.746094	30.668270
3985.598633	28.851818
3984.451172	-31.783934
3983.302734	9.953804
3982.154297	12.475017
3981.006836	17.164568
3979.857422	-15.156724
3978.708984	65.690506
3977.560547	52.940109
3976.411133	9.731734
3975.261719	40.483574
3974.112305	53.820297
3972.961914	19.312490
3971.811523	-6.493878
3970.662109	48.119591
3969.511719	4.920029
3968.360352	-5.680026
3967.209961	-5.421628
3966.058594	38.267609
3964.907227	25.477135
3963.755859	-65.472298
3962.604492	-2.278477
3961.452148	54.375771
3960.299805	22.039566
3959.147461	-16.798855
3957.995117	18.119011
3956.841797	-7.703526
3955.689453	-11.839883
3954.536133	-28.987070
3953.382813	-11.454035
3952.228516	-15.603087
3951.075195	25.743671
3949.920898	47.573944
3948.766602	21.742071
3947.612305	76.036751
3946.458008	56.694271
3945.302734	9.213489
3944.147461	-3.626376
3942.992188	63.596924
3941.836914	-14.161951
3940.680664	44.377094
3939.525391	-29.033623
3938.369141	25.152836
3937.211914	14.458621
3936.055664	8.086692
3934.898438	70.867653
3933.742188	75.282440
3932.584961	-30.483322
3931.426758	34.417461
3930.269531	28.026600
3929.111328	-21.547760
3927.953125	41.144608
3926.794922	-40.796448
3925.636719	6.763046
3924.477539	-25.526392
3923.319336	4.748295
3922.160156	0.500817
3921.000000	26.439842
3919.840820	78.236496
3918.680664	-18.720432
3917.520508	41.678978
3916.360352	74.041214
3915.200195	9.443128
3914.040039	-18.517706
3912.878906	-22.782475
3911.717773	50.464134
3910.556641	24.654238
3909.394531	46.202473
3908.233398	61.283619
3907.071289	54.840668
3905.909180	31.187777
3904.746094	-18.268362
3903.583984	16.154802
3902.420898	41.962612
3901.257813	7.570005
3900.094727	11.872416
3898.931641	37.658279
3897.767578	-9.613060
3896.603516	9.717914
3895.439453	-11.765078
3894.275391	63.380943
3893.111328	76.239510
3891.946289	65.480530
3890.781250	1.072734
3889.616211	-22.547075
3888.451172	3.179312
3887.285156	39.618076
3886.119141	35.296974
3884.953125	39.551311
3883.787109	-18.363626
3882.620117	-7.675659
3881.454102	60.862720
3880.287109	-29.167252
3879.120117	22.209274
3877.952148	-35.659607
3876.785156	-14.282660
3875.617188	86.296463
3874.449219	-78.581795
3873.281250	26.248259
3872.112305	26.193544
3870.944336	-8.091724
3869.775391	11.106164
3868.606445	-8.197832
3867.436523	0.298955
3866.267578	45.131729
3865.097656	-27.605747
3863.927734	6.527699
3862.757813	27.827694
3861.587891	-14.965562
3860.416992	44.770599
3859.246094	-8.689763
3858.075195	-13.028259
3856.904297	10.382398
3855.732422	16.709787
3854.560547	-11.106741
3853.388672	8.019571
3852.216797	39.935188
3851.044922	1.462644
3849.872070	48.290264
3848.699219	1.300642
3847.526367	41.714134
3846.353516	-11.652514
3845.179688	20.223541
3844.005859	-5.429094
3842.832031	30.691177
3841.658203	-9.862273
3840.484375	7.081842
3839.309570	36.790508
3838.134766	0.511497
3836.959961	28.080278
3835.785156	87.549553
3834.609375	47.023998
3833.434570	12.892340
3832.258789	-4.217436
3831.082031	63.713367
3829.906250	67.853432
3828.729492	23.113895
3827.552734	3.886382
3826.375977	20.778278
3825.199219	-13.310861
3824.021484	18.440929
3822.844727	-24.129448
3821.666992	-17.861910
3820.489258	-17.964552
3819.310547	26.493044
3818.131836	58.204029
3816.954102	9.298267
3815.774414	9.187700
3814.595703	-16.368195
3813.416992	23.804285
3812.237305	32.167294
3811.057617	-56.956623
3809.877930	25.575132
3808.697266	76.299538
3807.516602	-2.194870
3806.336914	31.573584
3805.155273	48.391029
3803.974609	-15.238476
3802.792969	22.744848
3801.612305	-11.232663
3800.430664	-7.115996
3799.248047	47.765335
3798.066406	32.834496
3796.883789	-22.266594
3795.701172	110.807205
3794.518555	47.256283
3793.335938	-33.178135
3792.152344	-37.517799
3790.968750	29.969820
3789.785156	29.843447
3788.601563	55.057747
3787.417969	23.255552
3786.233398	12.574478
3785.048828	29.334452
3783.864258	52.418419
3782.678711	-46.874508
3781.494141	1.527096
3780.308594	83.654610
3779.123047	43.451431
3777.937500	66.509674
3776.750977	-83.283470
3775.564453	-11.739675
3774.377930	42.920918
3773.191406	6.974382
3772.004883	51.079231
3770.817383	4.614654
3769.629883	8.698794
3768.442383	21.201534
3767.254883	18.966511
3766.066406	-14.832720
3764.878906	-19.164646
3763.690430	33.300259
3762.500977	62.610889
3761.312500	-9.021734
3760.123047	24.490211
3758.933594	32.765850
3757.744141	57.850903
3756.554688	30.396620
3755.364258	63.875690
3754.173828	21.727308
3752.983398	-1.505373
3751.792969	-60.423298
3750.602539	50.719021
3749.411133	58.976242
3748.219727	10.571798
3747.028320	-33.618637
3745.835938	14.505246
3744.644531	-31.767042
3743.452148	20.532200
3742.259766	35.074585
3741.067383	-13.272142
3739.874023	20.132607
3738.680664	19.999323
3737.487305	84.809517
3736.293945	55.340233
3735.100586	67.765244
3733.906250	4.809363
3732.711914	-37.189228
3731.517578	69.431091
3730.323242	48.362106
3729.127930	21.024242
3727.932617	56.451603
3726.737305	35.396572
3725.541992	35.259972
3724.345703	5.854017
3723.150391	-0.548014
3721.954102	80.827789
3720.757813	1.281517
3719.560547	61.735435
3718.364258	34.440357
3717.166992	-63.847996
3715.969727	-11.767585
3714.771484	42.381020
3713.574219	19.284052
3712.375977	-18.411772
3711.177734	71.176399
3709.979492	-35.353287
3708.780273	25.006025
3707.582031	58.234825
3706.382813	39.330292
3705.183594	87.135178
3703.983398	-38.054966
3702.784180	24.332207
3701.583984	-29.967907
3700.383789	38.643185
3699.182617	26.010839
3697.982422	19.629519
3696.781250	21.577517
3695.580078	-47.241013
3694.378906	-11.985984
3693.177734	-45.402939
3691.975586	27.281887
3690.773438	25.067005
3689.571289	14.535304
3688.369141	105.879410
3687.166016	103.651100
3685.962891	34.919693
3684.759766	-0.540341
3683.556641	-29.754757
3682.352539	-61.035362
3681.149414	-13.389892
3679.945313	-1.059452
3678.740234	29.949612
3677.536133	-15.847553
3676.331055	4.776945
3675.126953	39.917053
3673.920898	35.631069
3672.715820	-32.946926
3671.510742	-18.555494
3670.304688	20.709135
3669.098633	24.721081
3667.891602	49.455891
3666.685547	-31.493095
3665.478516	-19.187117
3664.271484	13.827053
3663.064453	13.694674
3661.857422	23.914768
3660.649414	46.551750
3659.441406	11.227787
3658.233398	50.413338
3657.025391	8.894897
3655.816406	45.997623
3654.607422	-7.913639
3653.398438	-45.262417
3652.189453	51.784477
3650.980469	-2.097846
3649.770508	30.838865
3648.560547	41.034340
3647.350586	36.764950
3646.139648	-10.878040
3644.929688	40.621311
3643.718750	-2.875252
3642.507813	5.252419
3641.295898	3.057384
3640.084961	-3.264052
3638.873047	83.259346
3637.661133	25.355637
3636.449219	8.721416
3635.236328	37.457535
3634.023438	-45.144833
3632.810547	16.570314
3631.597656	28.801828
3630.384766	-49.631874
3629.170898	-41.512878
3627.957031	-51.934284
3626.743164	32.376423
3625.529297	46.652035
3624.314453	13.575793
3623.099609	58.721771
3621.884766	33.886539
3620.669922	7.003076
3619.454102	35.668629
3618.239258	-32.337673
3617.023438	-24.238016
3615.806641	53.757328
3614.590820	14.561952
3613.374023	34.978382
3612.157227	-10.363029
3610.940430	-35.144600
3609.723633	44.833130
3608.505859	40.585682
3607.288086	17.861322
3606.070313	-21.276901
3604.852539	46.323536
3603.633789	58.494442
3602.415039	21.421881
3601.196289	8.977806
3599.977539	-46.529560
3598.758789	39.465755
3597.539063	0.373871
3596.319336	-32.554508
3595.099609	-36.780319
3593.878906	14.316384
3592.659180	57.199551
3591.438477	30.429098
3590.217773	28.241751
3588.996094	38.339497
3587.775391	38.198120
3586.553711	64.662811
3585.332031	17.452730
3584.109375	25.498308
3582.887695	31.495121
3581.665039	-58.629669
3580.442383	45.526321
3579.219727	-42.523426
3577.996094	30.931011
3576.773438	16.484678
3575.549805	-42.906269
3574.325195	59.105392
3573.101563	67.127777
3571.876953	75.146942
3570.652344	-55.668800
3569.427734	7.483957
3568.203125	31.836166
3566.977539	19.450098
3565.752930	76.432220
3564.526367	33.446033
3563.300781	-38.075043
3562.075195	-50.439590
3560.848633	47.283501
3559.622070	-60.888157
3558.395508	16.421600
3557.167969	69.252945
3555.940430	-14.418136
3554.712891	-26.774679
3553.485352	64.723648
3552.257813	13.674206
3551.029297	50.170990
3549.800781	21.529478
3548.572266	-25.414398
3547.343750	-7.240960
3546.114258	19.061338
3544.884766	-5.486769
3543.655273	-30.025848
3542.425781	10.494942
3541.195313	-36.395641
3539.965820	-18.242247
3538.734375	36.474579
3537.503906	30.230982
3536.273438	30.082275
3535.041992	-2.555516
3533.810547	11.512600
3532.579102	72.260315
3531.346680	15.279191
3530.115234	11.073840
3528.882813	21.070309
3527.650391	12.808317
3526.416992	20.772188
3525.184570	46.980267
3523.951172	71.151024
3522.717773	-1.971118
3521.483398	1.935572
3520.250000	38.256020
3519.015625	-2.410151
3517.781250	41.997719
3516.545898	45.891808
3515.311523	-17.022829
3514.076172	1.048748
3512.840820	-27.431744
3511.605469	-7.342416
3510.369141	2.624413
3509.133789	40.902748
3507.897461	6.368331
3506.660156	42.609116
3505.423828	4.043785
3504.186523	-34.507336
3502.949219	9.802176
3501.711914	15.709568
3500.474609	47.872913
3499.236328	63.867722
3497.998047	17.263260
3496.759766	41.332043
3495.521484	37.134254
3494.282227	14.775851
3493.042969	-29.768135
3491.803711	36.651524
3490.564453	34.473122
3489.324219	56.492741
3488.084961	56.326702
3486.844727	23.909098
3485.603516	17.702570
3484.363281	-32.830853
3483.122070	23.426325
3481.880859	67.576820
3480.639648	53.309906
3479.397461	10.859956
3478.156250	-49.691738
3476.914063	-27.701742
3475.671875	44.586781
3474.428711	44.419003
3473.186523	42.239258
3471.943359	13.915042
3470.700195	-68.689697
3469.456055	31.681877
3468.212891	31.514565
3466.968750	17.279491
3465.724609	1.040077
3464.479492	35.028248
3463.235352	66.994682
3461.990234	90.916176
3460.745117	56.603828
3459.499023	0.223044
3458.253906	36.184223
3457.007813	15.946530
3455.761719	-6.290207
3454.515625	-12.472156
3453.268555	-30.685076
3452.021484	-12.799934
3450.775391	-4.945573
3449.527344	-13.129211
3448.280273	8.749081
3447.032227	26.611532
3445.784180	70.508316
3444.536133	16.250048
3443.287109	-35.985676
3442.039063	33.923538
3440.790039	9.726814
3439.541016	-2.453398
3438.291016	7.380752
3437.041992	27.213474
3435.791992	25.036449
3434.541992	46.857193
3433.291016	-1.310144
3432.041016	12.510346
3430.790039	-31.635944
3429.539063	12.158340
3428.287109	25.967102
3427.036133	5.812216
3425.784180	-18.329720
3424.532227	9.452989
3423.280273	-16.677856
3422.027344	-48.787327
3420.774414	22.888010
3419.521484	-1.236618
3418.268555	-3.408955
3417.014648	-31.509447
3415.761719	-17.723064
3414.507813	-31.854889
3413.252930	17.806139
3411.999023	37.552952
3410.744141	35.373016
3409.489258	-28.566059
3408.234375	44.957348
3406.978516	-1.036880
3405.723633	-9.183051
3404.467773	-13.345090
3403.210938	-25.467514
3401.955078	-3.756041
3400.698242	11.977894
3399.441406	27.705378
3398.184570	61.326191
3396.927734	35.279484
3395.669922	-50.400829
3394.412109	22.968740
3393.154297	22.778210
3391.896484	46.430901
3390.637695	-21.309109
3389.378906	18.231846
3388.120117	51.799801
3386.861328	29.761513
3385.601563	41.477680
3384.341797	27.387653
3383.082031	-6.540851
3381.822266	9.142056
3380.561523	4.982678
3379.300781	44.455036
3378.040039	6.581471
3376.779297	79.739426
3375.517578	20.069679
3374.256836	25.818443
3372.995117	-6.080743
3371.732422	11.555533
3370.470703	-22.310335
3369.208008	-32.401421
3367.945313	5.026747
3366.682617	-22.881666
3365.418945	12.550563
3364.155273	-17.328337
3362.891602	-17.521475
3361.627930	-35.516521
3360.363281	1.866974
3359.099609	53.076218
3357.834961	52.868107
3356.569336	-6.633945
3355.304688	-6.831608
3354.039063	56.192844
3352.773438	-54.635818
3351.507813	-27.176294
3350.241211	53.585972
3348.975586	75.091049
3347.708984	-25.789789
3346.442383	-37.827385
3345.174805	-6.453165
3343.907227	50.553852
3342.639648	58.230591
3341.372070	16.605070
3340.104492	10.483320
3338.835938	-27.175829
3337.567383	0.216343
3336.298828	45.331772
3335.029297	23.446791
3333.760742	19.297127
3332.491211	-28.176796
3331.221680	-10.657437
3329.951172	12.760564
3328.681641	16.487131
3327.411133	-13.241417
3326.139648	12.129853
3324.869141	47.326599
3323.597656	15.641111
3322.327148	3.630712
3321.054688	32.909733
3319.783203	15.002949
3318.510742	4.963383
3317.238281	59.767212
3315.965820	-5.283137
3314.693359	29.860008
3313.419922	10.004901
3312.146484	58.874355
3310.873047	7.612848
3309.599609	21.136393
3308.325195	60.163395
3307.050781	3.043999
3305.776367	14.598026
3304.501953	4.574930
3303.226563	6.319641
3301.951172	17.865162
3300.675781	33.325935
3299.400391	-27.644901
3298.124023	-8.263756
3296.847656	42.451653
3295.571289	1.097701
3294.294922	-20.659594
3293.017578	-1.296104
3291.740234	21.974350
3290.462891	23.708469
3289.185547	0.005196
3287.907227	70.211349
3286.628906	-27.816580
3285.350586	28.678797
3284.072266	69.511017
3282.792969	41.910019
3281.513672	-102.945198
3280.234375	51.221558
3278.955078	11.916753
3277.674805	11.692286
3276.394531	48.572926
3275.114258	17.100052
3273.833984	61.773609
3272.552734	2.984296
3271.272461	-22.608669
3269.990234	-22.828609
3268.708984	56.929295
3267.426758	7.935761
3266.145508	68.157318
3264.862305	60.120506
3263.580078	22.848528
3262.296875	-0.767895
3261.014648	12.645053
3259.731445	14.364010
3258.447266	-11.186095
3257.164063	-3.621923
3255.879883	-44.735256
3254.595703	30.962603
3253.310547	81.330246
3252.026367	7.143725
3250.741211	45.823097
3249.456055	-10.823046
3248.169922	66.739120
3246.884766	19.831776
3245.598633	64.309929
3244.312500	-2.016060
3243.025391	13.299736
3241.739258	16.952065
3240.452148	12.832550
3239.165039	20.367210
3237.876953	84.210045
3236.589844	31.544090
3235.301758	33.246738
3234.013672	-44.618660
3232.724609	57.992401
3231.436523	69.387772
3230.147461	18.712784
3228.857422	41.745651
3227.568359	41.503746
3226.278320	0.554411
3224.989258	-11.308542
3223.698242	11.711233
3222.408203	-11.773852
3221.117188	9.299691
3219.826172	18.745338
3218.535156	82.401222
3217.244141	70.534439
3215.952148	6.413978
3214.660156	54.553993
3213.368164	-5.669962
3212.076172	13.437854
3210.783203	24.802071
3209.490234	28.427200
3208.197266	-4.681261
3206.903320	-59.039177
3205.610352	-1.290348
3204.316406	31.318161
3203.022461	60.050327
3201.727539	32.760281
3200.432617	42.170254
3199.137695	-21.789215
3197.842773	-31.675922
3196.547852	29.848392
3195.251953	-3.199785
3193.956055	-32.377159
3192.660156	-7.536450
3191.363281	9.580649
3190.067383	-46.576344
3188.770508	88.131989
3187.472656	37.762959
3186.175781	20.171661
3184.877930	-55.211533
3183.580078	52.427032
3182.282227	-3.675148
3180.983398	15.338554
3179.684570	36.269897
3178.385742	39.870110
3177.086914	62.712734
3175.788086	-20.275286
3174.488281	4.493278
3173.188477	21.558949
3171.887695	88.613930
3170.587891	-2.006629
3169.287109	-17.627375
3167.986328	-0.571366
3166.685547	-6.579504
3165.383789	33.520393
3164.082031	6.379696
3162.780273	79.107292
3161.478516	-7.551456
3160.175781	44.034744
3158.873047	62.973862
3157.570313	10.907134
3156.267578	62.459625
3154.963867	35.348385
3153.660156	31.260601
3152.356445	2.247975
3151.052734	0.084803
3149.748047	9.422271
3148.443359	-0.407041
3147.138672	35.749641
3145.833984	4.847524
3144.528320	-4.975761
3143.222656	12.012150
3141.916992	97.914040
3140.610352	28.741028
3139.304688	15.092595
3137.998047	16.756100
3136.691406	60.504677
3135.383789	14.342782
3134.076172	37.039768
3132.768555	6.194938
3131.460938	-30.372734
3130.153320	17.164454
3128.844727	49.396832
3127.536133	43.408264
3126.227539	60.342491
3124.917969	0.882442
3123.608398	-70.010887
3122.298828	32.838039
3120.989258	3.954562
3119.678711	43.778069
3118.369141	32.074066
3117.057617	69.969078
3115.747070	48.728615
3114.436523	21.775959
3113.125000	-7.072976
3111.813477	15.551810
3110.500977	22.922476
3109.189453	-5.910381
3107.876953	-11.873148
3106.564453	-23.547367
3105.250977	23.812689
3103.937500	8.328120
3102.625000	-20.474705
3101.310547	11.632360
3099.997070	13.283356
3098.682617	28.250132
3097.368164	3.269079
3096.053711	22.035149
3094.739258	27.484983
3093.423828	-5.085452
3092.108398	23.173758
3090.792969	-5.583088
3089.476563	-28.629671
3088.160156	37.606216
3086.843750	14.560124
3085.527344	20.003416
3084.210938	-12.522344
3082.893555	13.801635
3081.576172	57.193859
3080.257813	15.193211
3078.940430	-70.419548
3077.622070	60.203365
3076.303711	56.149170
3074.984375	17.972311
3073.666016	46.149841
3072.346680	-45.072083
3071.027344	58.894245
3069.707031	-5.774654
3068.387695	26.173416
3067.067383	-57.400276
3065.747070	-2.735904
3064.425781	-25.700285
3063.104492	-52.440880
3061.783203	15.435687
3060.461914	39.775303
3059.140625	-39.921974
3057.818359	12.784415
3056.496094	-38.516907
3055.173828	17.949512
3053.850586	-42.782940
3052.527344	17.441565
3051.204102	5.852392
3049.880859	-15.176673
3048.556641	9.126158
3047.233398	76.846581
3045.909180	14.285076
3044.583984	-1.067393
3043.259766	17.552729
3041.934570	0.318840
3040.608398	-5.590650
3039.283203	45.080547
3037.957031	44.821445
3036.630859	12.513763
3035.304688	25.454922
3033.978516	-12.490085
3032.651367	-1.433255
3031.324219	0.200485
3029.997070	9.367192
3028.668945	1.582981
3027.341797	-21.259569
3026.013672	21.787477
3024.684570	12.123358
3023.356445	15.634057
3022.027344	71.817497
3020.698242	-11.204056
3019.368164	29.918875
3018.039063	-7.939436
3016.708984	6.850284
3015.378906	53.584118
3014.047852	-1.168295
3012.717773	-25.840605
3011.386719	-3.545665
3010.055664	9.350924
3008.723633	54.161545
3007.392578	68.919273
3006.060547	27.365387
3004.727539	28.986948
3003.395508	24.979633
3002.062500	-39.051025
3000.729492	-1.784591
2999.396484	-24.534174
2998.062500	-56.648468
2996.728516	1.217319
2995.394531	17.833570
2994.060547	-6.775787
2992.725586	45.427032
2991.390625	26.440498
2990.055664	-18.753880
2988.720703	-62.058567
2987.384766	5.088941
2986.048828	25.424908
2984.712891	-1.023626
2983.376953	64.202568
2982.040039	-16.483112
2980.703125	15.061234
2979.366211	14.809854
2978.028320	63.159233
2976.690430	27.389706
2975.352539	47.689991
2974.014648	32.487278
2972.675781	17.290419
2971.336914	-9.105239
2969.998047	31.724499
2968.659180	65.071503
2967.319336	62.944691
2965.979492	21.632753
2964.639648	-28.991322
2963.299805	28.590351
2961.958984	-12.690830
2960.618164	35.542637
2959.277344	31.560036
2957.935547	-56.293533
2956.593750	-4.352606
2955.251953	-15.777524
2953.910156	-30.923449
2952.567383	74.991669
2951.225586	41.213852
2949.881836	18.619032
2948.539063	40.704445
2947.195313	8.813857
2945.852539	42.056202
2944.507813	21.339090
2943.164063	4.349884
2941.819336	-72.136810
2940.474609	33.602032
2939.129883	-13.120059
2937.784180	-46.815098
2936.439453	-4.316530
2935.093750	27.019392
2933.747070	26.768417
2932.401367	-23.620861
2931.054688	-33.144951
2929.708008	57.572731
2928.360352	-35.478794
2927.013672	-9.739608
2925.666016	-8.127721
2924.318359	-51.032059
2922.969727	-6.760168
2921.621094	28.224075
2920.272461	52.072407
2918.923828	-7.490502
2917.575195	23.767647
2916.225586	-9.829348
2914.875977	10.303409
2913.525391	-30.685640
2912.175781	-3.150207
2910.825195	-25.608341
2909.474609	144.431763
2908.123047	-20.534876
2906.772461	-52.227158
2905.420898	28.929646
2904.069336	4.637916
2902.716797	-6.700970
2901.364258	-8.791853
2900.011719	-53.393768
2898.659180	9.204835
2897.305664	32.979000
2895.953125	27.187744
2894.599609	-2.611056
2893.245117	8.225851
2891.891602	20.904869
2890.537109	-75.325142
2889.181641	22.256941
2887.827148	-0.131241
2886.471680	-40.958179
2885.116211	-31.970522
2883.760742	-28.518372
2882.405273	-36.129620
2881.048828	-62.171074
2879.692383	16.846506
2878.334961	81.092506
2876.978516	71.623856
2875.621094	10.586084
2874.263672	19.550219
2872.905273	43.240150
2871.547852	-26.960293
2870.189453	55.624146
2868.830078	16.730215
2867.471680	56.960194
2866.112305	-37.100082
2864.752930	-22.621460
2863.393555	10.238160
2862.033203	33.893524
2860.672852	35.484386
2859.312500	-41.941635
2857.952148	18.454866
2856.590820	-16.689497
2855.229492	-35.291485
2853.868164	69.136391
2852.505859	43.181782
2851.144531	15.401987
2849.782227	13.324244
2848.418945	33.263985
2847.056641	104.558464
2845.693359	8.930062
2844.330078	-20.649437
2842.965820	8.448153
2841.602539	94.355560
2840.238281	-1.196113
2838.874023	-6.931425
2837.508789	-5.337060
2836.143555	10.908868
2834.778320	16.161585
2833.413086	-0.557241
2832.046875	98.048180
2830.681641	-33.975128
2829.314453	-21.398726
2827.948242	66.177010
2826.581055	-41.985641
2825.214844	-18.442783
2823.846680	-7.707322
2822.479492	45.066772
2821.111328	39.337536
2819.743164	11.683929
2818.375000	9.617310
2817.005859	45.908318
2815.636719	52.966732
2814.267578	-16.661245
2812.898438	30.566498
2811.528320	28.498426
2810.158203	2.709721
2808.788086	42.608646
2807.416992	20.475367
2806.046875	22.058449
2804.675781	-23.765123
2803.303711	-29.465811
2801.932617	88.772331
2800.560547	6.517948
2799.188477	11.746171
2797.815430	22.436878
2796.443359	29.481211
2795.070313	54.731010
2793.696289	30.818472
2792.323242	-20.386190
2790.949219	13.957383
2789.575195	-33.585148
2788.201172	-39.271172
2786.826172	4.149510
2785.451172	-5.178279
2784.076172	87.304054
2782.701172	10.712043
2781.325195	-22.235785
2779.949219	32.040752
2778.573242	17.267239
2777.196289	-17.478670
2775.819336	2.264311
2774.442383	9.291164
2773.065430	-56.289772
2771.687500	68.706085
2770.309570	19.468969
2768.931641	-6.165977
2767.553711	9.924414
2766.174805	-8.445205
2764.795898	-12.303597
2763.416992	59.970573
2762.037109	21.666872
2760.657227	5.121405
2759.277344	-4.171200
2757.897461	-20.705084
2756.516602	46.067623
2755.135742	-13.921949
2753.754883	12.999786
2752.373047	74.297325
2750.991211	5.290288
2749.609375	23.147072
2748.227539	-6.030457
2746.844727	-6.262360
2745.461914	58.595142
2744.079102	7.735713
2742.696289	47.262623
2741.312500	32.564808
2739.928711	-43.552208
2738.544922	-36.551197
2737.160156	22.818409
2735.775391	78.553726
2734.390625	38.591515
2733.005859	32.937088
2731.620117	25.480421
2730.234375	7.201837
2728.848633	1.556964
2727.461914	22.965805
2726.076172	20.926243
2724.689453	44.125698
2723.301758	-1.174116
2721.915039	-24.831879
2720.527344	-59.290359
2719.138672	50.369629
2717.750977	-21.910124
2716.362305	31.880804
2714.973633	-2.561687
2713.584961	-6.392324
2712.195313	13.172606
2710.806641	7.541266
2709.416016	90.055145
2708.026367	-12.707323
2706.635742	-36.311653
2705.245117	22.791265
2703.854492	-25.974674
2702.462891	-45.968281
2701.072266	0.524764
2699.680664	7.479349
2698.288086	21.615326
2696.896484	37.541477
2695.503906	60.642551
2694.110352	-6.013342
2692.717773	18.881926
2691.324219	18.647791
2689.930664	39.940605
2688.537109	-8.723272
2687.142578	-21.504164
2685.748047	-2.008778
2684.353516	-4.031001
2682.958984	-2.468048
2681.563477	-0.905776
2680.167969	68.730377
2678.771484	-17.484917
2677.375977	-35.618603
2675.979492	66.210167
2674.583008	-30.693884
2673.185547	-21.969160
2671.789063	58.325089
2670.391602	2.625976
2668.993164	56.054478
2667.595703	21.836990
2666.197266	19.815413
2664.798828	17.794655
2663.400391	37.221188
2662.000977	19.116095
2660.601563	22.456154
2659.202148	40.084206
2657.801758	54.133690
2656.401367	-22.880461
2655.000977	32.233223
2653.600586	-7.266535
2652.199219	10.350026
2650.797852	68.992737
2649.396484	38.427582
2647.995117	-40.275852
2646.592773	39.738167
2645.190430	10.979442
2643.787109	26.789307
2642.384766	15.863941
2640.981445	44.137779
2639.578125	90.212906
2638.173828	91.747681
2636.769531	23.840883
2635.365234	25.388088
2633.960938	-5.102343
2632.555664	33.819199
2631.150391	38.921787
2629.745117	58.252735
2628.339844	4.660240
2626.933594	55.995770
2625.527344	68.200951
2624.121094	-45.792828
2622.713867	-56.673763
2621.306641	17.730171
2619.899414	-5.593289
2618.492188	31.475727
2617.083984	61.427601
2615.675781	-4.497459
2614.266602	0.600659
2612.858398	-19.147295
2611.449219	23.210569
2610.040039	3.465914
2608.629883	67.084953
2607.220703	4.783149
2605.810547	34.693062
2604.399414	-2.763071
2602.989258	-15.394561
2601.578125	48.165462
2600.166992	-5.214008
2598.754883	-23.150805
2597.343750	26.207315
2595.930664	75.545914
2594.518555	-34.437817
2593.106445	-22.270041
2591.693359	-10.107099
2590.280273	9.127032
2588.866211	-12.325070
2587.452148	-9.012686
2586.038086	-2.165733
2584.624023	91.290314
2583.208984	20.356327
2581.794922	-39.948265
2580.378906	49.926720
2578.963867	102.676208
2577.547852	60.049473
2576.131836	36.860012
2574.715820	15.444864
2573.298828	6.391768
2571.881836	60.862194
2570.464844	-4.647400
2569.047852	28.638807
2567.629883	-17.441145
2566.211914	26.412766
2564.793945	20.893652
2563.375000	57.673176
2561.956055	1.051907
2560.537109	29.012573
2559.118164	16.452147
2557.698242	0.374745
2556.278320	3.670416
2554.857422	40.409744
2553.437500	82.414337
2552.016602	43.462311
2550.595703	48.506107
2549.173828	57.065643
2547.752930	-29.338259
2546.330078	-13.734019
2544.908203	82.724106
2543.485352	19.213596
2542.063477	-10.886264
2540.639648	25.783432
2539.216797	60.682198
2537.792969	-1.017489
2536.369141	28.605612
2534.945313	58.216965
2533.520508	35.165356
2532.095703	5.104136
2530.670898	-16.173420
2529.245117	-5.870588
2527.819336	30.732998
2526.393555	-1.056811
2524.967773	9.237034
2523.541016	47.568542
2522.114258	26.307924
2520.687500	38.342209
2519.260742	-0.423703
2517.833008	34.376923
2516.405273	14.886816
2514.976563	40.918079
2513.547852	63.438644
2512.119141	28.205956
2510.690430	17.480024
2509.261719	34.744553
2507.832031	20.524046
2506.402344	-2.433047
2504.971680	-11.396231
2503.541016	2.364997
2502.110352	33.594780
2500.679688	71.800438
2499.248047	27.895578
2497.816406	59.101852
2496.384766	18.708996
2494.953125	-56.581089
2493.520508	28.728458
2492.087891	19.775421
2490.655273	61.420338
2489.221680	96.071564
2487.788086	33.048473
2486.354492	81.640419
2484.919922	53.510231
2483.485352	98.593048
2482.050781	-18.399454
2480.616211	78.946114
2479.180664	40.387787
2477.745117	73.246994
2476.309570	12.070013
2474.873047	6.623775
2473.437500	63.836933
2472.000000	42.721424
2470.563477	19.874683
2469.125977	68.354034
2467.688477	48.989513
2466.250977	-53.827206
2464.812500	64.174171
2463.374023	69.154984
2461.935547	63.707584
2460.497070	14.828315
2459.057617	-4.502205
2457.618164	42.168755
2456.177734	26.313269
2454.738281	6.992252
2453.297852	11.977926
2451.857422	79.432304
2450.416016	18.473591
2448.974609	-0.830259
2447.533203	24.964361
2446.091797	-1.268644
2444.649414	3.713128
2443.207031	81.488441
2441.764648	44.862782
2440.321289	32.507259
2438.877930	20.156773
2437.434570	4.347511
2435.990234	-14.918289
2434.546875	7.371327
2433.101563	10.613253
2431.657227	13.853957
2430.211914	11.903142
2428.766602	-0.425568
2427.321289	23.568880
2425.875977	16.430248
2424.429688	40.411930
2422.983398	14.260596
2421.536133	12.312525
2420.089844	46.647236
2418.642578	18.783178
2417.194336	-7.342642
2415.747070	1.075556
2414.298828	52.648869
2412.849609	-7.987636
2411.401367	71.177452
2409.952148	70.947243
2408.502930	13.793621
2407.052734	-1.946455
2405.603516	61.636303
2404.152344	61.408585
2402.703125	38.774479
2401.251953	-23.484980
2399.800781	27.991522
2398.349609	65.667244
2396.898438	-0.004378
2395.445313	-13.993857
2393.994141	20.225033
2392.541016	44.103245
2391.087891	4.301227
2389.634766	33.334854
2388.181641	36.554771
2386.728516	-23.859150
2385.275391	65.344193
2383.820313	-24.276104
2382.365234	8.172404
2380.910156	9.676412
2379.455078	24.924582
2378.000000	-4.494526
2376.544922	-20.162512
2375.089844	41.443516
2373.632813	13.755820
2372.175781	-5.338768
2370.718750	40.783470
2369.261719	-31.494896
2367.804688	35.198631
2366.347656	40.125652
2364.888672	14.186883
2363.429688	68.831520
2361.972656	24.044113
2360.513672	13.547290
2359.054688	-5.511626
2357.593750	4.557266
2356.134766	-40.180946
2354.673828	33.244846
2353.214844	26.181347
2351.753906	7.139768
2350.292969	-8.471586
2348.832031	40.937374
2347.369141	-10.595727
2345.908203	38.794239
2344.445313	4.381241
2342.984375	2.463091
2341.521484	33.020367
2340.058594	3.756166
2338.593750	-40.872692
2337.130859	39.211990
2335.667969	9.964644
2334.203125	91.714890
2332.738281	120.511589
2331.273438	214.154846
2329.808594	259.980377
2328.343750	135.177139
2326.878906	66.714233
2325.412109	-23.891567
2323.945313	-17.271278
2322.478516	-7.243928
2321.011719	-10.855596
2319.544922	-2.537189
2318.078125	-14.666512
2316.611328	-14.867163
2315.142578	36.023430
2313.673828	-16.970289
2312.205078	-15.467397
2310.736328	20.075321
2309.267578	28.377287
2307.798828	24.766874
2306.328125	-29.871489
2304.859375	-62.379292
2303.388672	29.248350
2301.917969	-1.557927
2300.447266	-3.458034
2298.974609	13.334990
2297.503906	-22.545744
2296.031250	35.011227
2294.560547	11.028903
2293.087891	-40.110378
2291.615234	-13.140176
2290.142578	42.672428
2288.667969	-18.623096
2287.195313	-30.693563
2285.720703	14.912394
2284.246094	1.144570
2282.773438	7.729063
2281.296875	22.787022
2279.822266	-11.311551
2278.347656	-43.701744
2276.871094	5.241783
2275.396484	-57.627220
2273.919922	50.572304
2272.443359	-37.677380
2270.966797	21.383556
2269.488281	-16.050083
2268.011719	4.064224
2266.533203	14.019897
2265.056641	17.206074
2263.578125	-47.253502
2262.099609	18.502949
2260.619141	-57.763485
2259.140625	-24.142673
2257.662109	9.464980
2256.181641	-5.933826
2254.701172	49.615150
2253.220703	-13.069674
2251.740234	-3.127756
2250.259766	23.690962
2248.777344	42.060604
2247.296875	35.112423
2245.814453	39.976643
2244.332031	11.105058
2242.849609	-61.600044
2241.367188	-22.997976
2239.884766	72.902229
2238.400391	-36.848293
2236.917969	-10.068607
2235.433594	-32.154915
2233.949219	58.618202
2232.464844	4.531745
2230.978516	-24.277813
2229.494141	29.406889
2228.009766	-6.127352
2226.523438	-23.138046
2225.037109	5.280512
2223.550781	43.779633
2222.064453	4.909059
2220.576172	-13.770176
2219.089844	1.177240
2217.601563	-27.576702
2216.115234	-26.073986
2214.626953	-31.291304
2213.138672	-16.351025
2211.648438	12.017480
2210.160156	6.796638
2208.669922	-11.850346
2207.181641	31.605280
2205.691406	-27.308163
2204.201172	2.713218
2202.710938	-25.980049
2201.218750	12.414101
2199.728516	2.173192
2198.236328	8.698781
2196.744141	-21.647011
2195.251953	25.094250
2193.759766	-3.566814
2192.267578	61.576157
2190.775391	19.523777
2189.281250	19.343372
2187.787109	-26.030552
2186.294922	-51.303692
2184.800781	10.438584
2183.304688	120.668442
2181.810547	41.862183
2180.316406	-6.813124
2178.820313	-1.970145
2177.324219	37.972412
2175.828125	-14.013894
2174.332031	22.574051
2172.835938	15.715312
2171.337891	-44.584667
2169.841797	37.072899
2168.343750	-8.181174
2166.845703	-10.019376
2165.347656	9.837710
2163.849609	-68.751396
2162.351563	76.218742
2160.851563	-7.354581
2159.353516	-7.521937
2157.853516	47.325596
2156.353516	22.146618
2154.853516	6.976655
2153.353516	-39.842495
2151.851563	19.965981
2150.351563	11.468451
2148.849609	49.597084
2147.347656	34.438774
2145.845703	15.958186
2144.343750	-29.139849
2142.839844	43.906166
2141.337891	-34.446533
2139.833984	-29.613861
2138.330078	-36.421947
2136.826172	38.230408
2135.322266	-21.773685
2133.818359	-26.916338
2132.314453	24.430502
2130.808594	34.230789
2129.302734	-25.722414
2127.796875	-35.839748
2126.291016	-16.071836
2124.785156	51.819908
2123.279297	16.803623
2121.771484	21.618719
2120.263672	33.067112
2118.757813	16.318995
2117.250000	-18.660240
2115.740234	62.413532
2114.232422	25.782553
2112.724609	9.050982
2111.214844	8.893535
2109.705078	-4.514344
2108.195313	-26.196459
2106.685547	43.192955
2105.175781	18.200041
2103.664063	34.592899
2102.154297	84.072876
2100.642578	-7.085486
2099.130859	15.919663
2097.619141	-35.499142
2096.107422	65.209854
2094.595703	40.250637
2093.082031	-7.835379
2091.570313	-59.206169
2090.056641	24.907637
2088.542969	-19.841539
2087.029297	16.342628
2085.513672	17.841837
2084.000000	-15.323004
2082.484375	29.091051
2080.968750	9.138097
2079.455078	0.741121
2077.937500	15.438407
2076.421875	11.991294
2074.906250	23.383772
2073.388672	49.606857
2071.873047	31.324274
2070.355469	32.821270
2068.837891	-79.346291
2067.320313	9.462944
2065.800781	-12.088314
2064.283203	53.623734
2062.763672	12.321300
2061.244141	-17.444464
2059.724609	8.742580
2058.205078	25.049549
2056.685547	21.614622
2055.164063	14.892934
2053.644531	26.257908
2052.123047	37.618713
2050.601563	-20.043325
2049.080078	-2.105036
2047.558594	19.111559
2046.035156	27.181524
2044.513672	54.952225
2042.990234	-1.011292
2041.466797	-35.614719
2039.943359	39.740944
2038.419922	-52.278111
2036.896484	-4.833992
2035.371094	-3.327761
2033.847656	26.051861
2032.322266	-1.955383
2030.796875	25.773861
2029.271484	12.526454
2027.744141	-20.374725
2026.218750	15.532293
2024.691406	53.062820
2023.164063	-38.768253
2021.636719	2.032722
2020.109375	-14.464736
2018.582031	26.315422
2017.054688	40.903831
2015.525391	6.417750
2013.996094	42.263969
2012.468750	22.506992
2010.939453	-38.107498
2009.408203	-2.272866
2007.878906	43.351269
2006.347656	-36.832981
2004.818359	-32.052383
2003.287109	28.247896
2001.755859	16.687654
2000.224609	10.029462
1998.691406	6.638320
1997.160156	58.724777
1995.626953	55.325779
1994.093750	42.142609
1992.560547	11.028109
1991.027344	27.205725
1989.494141	-12.042378
1987.960938	-4.014236
1986.425781	23.562929
1984.890625	-20.546309
1983.355469	28.196133
1981.820313	49.237579
1980.285156	-7.872901
1978.750000	9.912665
1977.212891	-12.991887
1975.675781	4.788179
1974.138672	40.454643
1972.601563	14.306147
1971.064453	-3.701255
1969.527344	41.700073
1967.988281	35.072468
1966.451172	-17.052374
1964.912109	2.330100
1963.373047	-12.406168
1961.833984	62.184559
1960.292969	6.850714
1958.753906	9.980251
1957.212891	-11.236356
1955.671875	42.199646
1954.130859	-0.104933
1952.589844	27.355154
1951.048828	-1.954948
1949.505859	23.873661
1947.964844	-8.665299
1946.421875	-42.811283
1944.878906	81.853348
1943.335938	16.922649
1941.792969	68.637825
1940.248047	-48.083134
1938.705078	47.339008
1937.160156	52.074402
1935.615234	45.479465
1934.070313	-8.036194
1932.525391	46.857922
1930.978516	64.529884
1929.433594	43.385208
1927.886719	22.249577
1926.339844	52.847748
1924.792969	38.183563
1923.246094	8.984012
1921.699219	21.797369
1920.150391	21.685127
1918.601563	-20.410366
1917.052734	-35.043190
1915.503906	3.595185
1913.955078	3.487789
1912.406250	34.035801
1910.855469	3.273863
1909.306641	-24.249882
1907.755859	44.984470
1906.205078	-22.838728
1904.654297	6.072936
1903.101563	33.361649
1901.550781	-3.805614
1899.998047	37.971489
1898.447266	8.871284
1896.894531	34.527756
1895.339844	3.830975
1893.787109	64.886826
1892.234375	-14.077675
1890.679688	-2.915880
1889.125000	-20.711206
1887.570313	33.867947
1886.015625	28.935410
1884.460938	38.472500
1882.906250	-30.745398
1881.349609	-13.165324
1879.792969	10.833769
1878.236328	7.518176
1876.679688	-42.365646
1875.123047	21.763292
1873.566406	20.053120
1872.007813	45.626678
1870.449219	43.912754
1868.890625	48.616550
1867.332031	-20.459881
1865.773438	72.450676
1864.214844	14.620549
1862.654297	56.193703
1861.093750	22.429432
1859.533203	-4.911894
1857.972656	-67.483780
1856.412109	17.315208
1854.851563	66.852074
1853.289063	-6.902013
1851.728516	-21.403931
1850.166016	16.909029
1848.603516	34.407238
1847.039063	-31.281145
1845.476563	45.393284
1843.914063	24.500389
1842.349609	-4.376902
1840.785156	19.501537
1839.220703	59.349876
1837.656250	14.507158
1836.091797	-1.565496
1834.525391	30.278133
1832.958984	3.032505
1831.392578	-6.642230
1829.826172	25.183064
1828.259766	-13.214211
1826.693359	2.646042
1825.125000	29.665051
1823.558594	19.995064
1821.990234	13.518006
1820.421875	5.449585
1818.853516	-32.895870
1817.285156	35.530769
1815.714844	-33.072880
1814.144531	-36.346642
1812.576172	9.745138
1811.005859	1.687781
1809.433594	-15.916604
1807.863281	-8.051208
1806.292969	45.952469
1804.720703	-35.280411
1803.148438	45.744186
1801.576172	24.968700
1800.003906	32.817806
1798.431641	-27.682676
1796.857422	42.149910
1795.285156	-4.028467
1793.710938	62.593624
1792.136719	-7.392005
1790.562500	8.393177
1788.986328	97.196465
1787.412109	-21.955191
1785.835938	20.799500
1784.259766	27.046848
1782.683594	42.808704
1781.107422	25.261032
1779.531250	18.819288
1777.955078	-58.953964
1776.376953	-13.074862
1774.798828	2.678899
1773.220703	10.505008
1771.642578	-22.853498
1770.064453	57.818771
1768.484375	-13.533623
1766.906250	37.027882
1765.326172	-1.056558
1763.746094	11.507133
1762.166016	36.721085
1760.583984	16.057880
1759.003906	-33.060219
1757.421875	-12.595766
1755.841797	52.117950
1754.259766	23.566612
1752.675781	51.906528
1751.093750	51.800632
1749.511719	-0.423219
1747.927734	-27.361540
1746.343750	18.330532
1744.759766	8.761206
1743.175781	-10.272524
1741.591797	-48.230927
1740.005859	41.593990
1738.421875	3.640235
1736.835938	-21.684080
1735.250000	11.328819
1733.664063	-10.834741
1732.076172	44.222679
1730.490234	-42.531300
1728.902344	20.385096
1727.316406	12.410315
1725.728516	-20.752436
1724.138672	12.211720
1722.550781	42.014423
1720.962891	7.292070
1719.373047	33.936909
1717.783203	11.812966
1716.193359	24.292984
1714.603516	28.906742
1713.013672	-13.637081
1711.421875	67.987175
1709.830078	27.023724
1708.240234	6.498343
1706.648438	12.680703
1705.054688	59.686340
1703.462891	10.908114
1701.871094	17.085075
1700.277344	29.536415
1698.683594	21.586309
1697.089844	16.776438
1695.496094	41.765739
1693.902344	29.113470
1692.306641	36.845490
1690.710938	-16.550945
1689.117188	-41.719852
1687.521484	44.354340
1685.923828	52.075928
1684.328125	-4.412465
1682.730469	44.023449
1681.134766	-14.005754
1679.537109	12.501039
1677.939453	1.443383
1676.341797	13.855944
1674.742188	29.391405
1673.144531	-0.428642
1671.544922	85.456726
1669.945313	29.064371
1668.345703	14.889965
1666.746094	-33.652740
1665.144531	20.924810
1663.544922	-30.723154
1661.943359	-30.821178
1660.341797	4.987145
1658.740234	18.928745
1657.138672	-12.390548
1655.535156	23.390991
1653.933594	27.960005
1652.330078	-26.735575
1650.726563	-20.599340
1649.123047	-12.907055
1647.519531	8.808872
1645.914063	50.772713
1644.310547	35.075649
1642.705078	22.500088
1641.099609	44.189495
1639.494141	6.705326
1637.888672	-44.773342
1636.281250	-33.978474
1634.675781	-23.188513
1633.068359	4.709024
1631.460938	-42.061714
1629.853516	49.583260
1628.244141	-3.396681
1626.636719	-22.158878
1625.027344	13.478176
1623.417969	49.100147
1621.808594	28.784430
1620.199219	-69.177353
1618.589844	33.207226
1616.978516	6.696795
1615.369141	18.999746
1613.757813	0.261507
1612.146484	-27.778139
1610.535156	12.444100
1608.921875	3.022850
1607.310547	47.872799
1605.697266	47.748508
1604.083984	-39.168221
1602.470703	-14.482435
1600.857422	-6.848672
1599.242188	34.857353
1597.628906	5.311322
1596.013672	29.965969
1594.398438	-53.744949
1592.783203	-32.184101
1591.167969	-4.443530
1589.550781	-3.013088
1587.935547	33.989090
1586.318359	53.966049
1584.701172	43.014393
1583.083984	-65.310768
1581.466797	11.851477
1579.847656	-2.175686
1578.230469	-20.831553
1576.611328	-50.290714
1574.992188	-7.166713
1573.373047	-18.092176
1571.751953	-38.273941
1570.132813	14.078253
1568.511719	9.325330
1566.890625	6.116449
1565.269531	19.872143
1563.648438	25.912664
1562.027344	1.120275
1560.404297	5.620353
1558.783203	77.915932
1557.160156	77.775833
1555.537109	150.025604
1553.912109	38.997284
1552.289063	17.310246
1550.664063	54.123627
1549.041016	44.753208
1547.416016	18.461637
1545.791016	-9.357594
1544.164063	19.739487
1542.539063	5.769778
1540.912109	13.328201
1539.287109	-3.709090
1537.660156	-3.835922
1536.033203	65.173592
1534.404297	60.423649
1532.777344	0.389032
1531.148438	15.614183
1529.519531	49.253826
1527.890625	29.162092
1526.261719	7.543996
1524.632813	33.492622
1523.001953	-37.199917
1521.373047	-8.186446
1519.742188	-14.448290
1518.111328	46.737579
1516.478516	-7.042110
1514.847656	0.488712
1513.214844	6.484221
1511.583984	-5.902015
1509.951172	47.560535
1508.318359	22.922899
1506.683594	-1.704630
1505.050781	73.146706
1503.416016	4.149146
1501.783203	33.077847
1500.148438	-28.236450
1498.511719	2.215478
1496.876953	21.953480
1495.242188	1.945206
1493.605469	43.067364
1491.968750	65.839188
1490.332031	15.285153
1488.695313	-39.829288
1487.058594	-4.840987
1485.419922	34.711906
1483.781250	34.568291
1482.142578	8.485563
1480.503906	8.347024
1478.865234	14.309050
1477.226563	-27.002499
1475.585938	12.504047
1473.945313	56.566494
1472.304688	3.080174
1470.664063	44.078537
1469.023438	56.117432
1467.380859	37.692039
1465.740234	26.887339
1464.097656	6.953074
1462.455078	49.428810
1460.812500	9.715981
1459.167969	-57.364861
1457.525391	-4.255523
1455.880859	50.352146
1454.236328	6.110502
1452.591797	50.052269
1450.947266	-4.809544
1449.302734	33.038006
1447.656250	8.585145
1446.009766	60.083176
1444.363281	75.115540
1442.716797	52.187000
1441.070313	-2.607037
1439.421875	85.270721
1437.775391	42.630230
1436.126953	0.007615
1434.478516	102.995239
1432.830078	-3.305762
1431.179688	42.033020
1429.531250	16.117874
1427.880859	35.673088
1426.230469	82.490067
1424.580078	0.539329
1422.929688	50.372707
1421.279297	-54.247704
1419.626953	66.721542
1417.974609	4.517099
1416.322266	11.941101
1414.669922	19.362024
1413.017578	19.217560
1411.363281	-8.145433
1409.710938	15.905155
1408.056641	35.411243
1406.402344	26.196455
1404.748047	7.920410
1403.091797	87.838295
1401.437500	3.106503
1399.781250	-0.053778
1398.125000	37.546738
1396.468750	46.455055
1394.812500	13.108503
1393.154297	58.226192
1391.498047	24.891407
1389.839844	18.715158
1388.181641	48.726578
1386.523438	38.026020
1384.865234	-37.473976
1383.205078	-10.482692
1381.544922	21.016794
1379.884766	8.825638
1378.224609	-7.877621
1376.564453	-24.573626
1374.904297	2.387599
1373.242188	77.493172
1371.580078	-12.932055
1369.919922	-14.569890
1368.255859	69.516182
1366.593750	13.732982
1364.931641	-26.993696
1363.267578	16.462797
1361.603516	2.800843
1359.939453	-28.882931
1358.275391	-6.480723
1356.611328	9.905668
1354.945313	-5.243464
1353.279297	20.142879
1351.613281	4.998729
1349.947266	-1.136168
1348.281250	6.233010
1346.615234	27.097668
1344.947266	74.944756
1343.279297	-3.158151
1341.611328	20.694357
1339.943359	25.056187
1338.275391	44.398903
1336.605469	3.817738
1334.935547	5.186662
1333.267578	15.539071
1331.597656	9.421124
1329.925781	-16.150074
1328.255859	-2.805380
1326.583984	10.534207
1324.912109	-3.053852
1323.240234	10.281346
1321.568359	-27.220928
1319.896484	-0.432368
1318.224609	48.762093
1316.550781	38.171551
1314.876953	-0.796326
1313.203125	49.862556
1311.529297	16.882652
1309.853516	-38.475582
1308.179688	33.056889
1306.503906	-10.342163
1304.828125	28.333426
1303.152344	1.362782
1301.474609	31.073328
1299.798828	41.389362
1298.121094	4.000625
1296.443359	-5.054921
1294.765625	-51.356731
1293.087891	-35.069950
1291.410156	46.744514
1289.730469	54.070900
1288.050781	7.799021
1286.371094	-14.637021
1284.691406	19.486845
1283.011719	43.182350
1281.332031	-4.532178
1279.650391	-3.147789
1277.968750	38.382988
1276.287109	88.816582
1274.605469	1.007427
1272.921875	-5.036426
1271.240234	39.434784
1269.556641	-12.657595
1267.873047	45.163589
1266.189453	10.910314
1264.505859	47.922863
1262.820313	31.494503
1261.134766	-2.730927
1259.451172	0.145158
1257.765625	-39.989502
1256.078125	-57.863773
1254.392578	17.667955
1252.705078	-12.066140
1251.019531	29.343216
1249.332031	-10.749367
1247.642578	48.419739
1245.955078	36.480202
1244.267578	-9.507362
1242.578125	-15.505836
1240.888672	-33.340454
1239.199219	-5.296240
1237.509766	43.448479
1235.818359	-67.563614
1234.128906	-32.132442
1232.437500	22.504776
1230.746094	-29.303925
1229.054688	16.445496
1227.363281	28.194641
1225.669922	-50.167301
1223.976563	-14.776313
1222.283203	-34.031181
1220.589844	-17.846813
1218.896484	-47.421494
1217.203125	-0.250392
1215.507813	26.248199
1213.812500	-3.312446
1212.117188	29.077208
1210.421875	-24.058229
1208.726563	-10.837455
1207.029297	-25.621569
1205.332031	-21.243347
1203.636719	-30.123529
1201.937500	-30.161283
1200.240234	-50.812336
1198.542969	0.683565
1196.843750	37.440788
1195.144531	-18.523600
1193.445313	-9.728080
1191.746094	-22.998442
1190.046875	-14.202347
1188.345703	15.176199
1186.644531	7.794267
1184.943359	25.401749
1183.242188	-28.995422
1181.541016	15.058883
1179.837891	15.034225
1178.136719	-17.294239
1176.433594	32.607693
1174.730469	-54.015896
1173.027344	56.043697
1171.322266	12.004205
1169.619141	-1.210493
1167.914063	1.714648
1166.208984	-17.353306
1164.503906	19.294456
1162.796875	-33.474407
1161.091797	39.798012
1159.384766	19.281210
1157.677734	-34.912819
1155.970703	35.390678
1154.263672	6.109438
1152.554688	33.929607
1150.847656	35.397636
1149.138672	60.277592
1147.429688	9.082022
1145.720703	-55.252357
1144.009766	23.739058
1142.300781	39.837311
1140.589844	1.852509
1138.878906	-3.965991
1137.167969	12.134566
1135.455078	32.612690
1133.744141	9.273815
1132.031250	22.448032
1130.318359	45.836891
1128.605469	-31.481104
1126.892578	13.800209
1125.179688	51.770626
1123.464844	-7.990605
1121.750000	-3.564781
1120.035156	21.271498
1118.320313	89.825798
1116.605469	22.830366
1114.888672	40.367764
1113.171875	41.877251
1111.455078	-43.989864
1109.738281	55.093281
1108.021484	42.048866
1106.302734	72.674011
1104.585938	-10.206899
1102.867188	39.332932
1101.148438	48.129589
1099.429688	43.837685
1097.708984	-31.687002
1095.990234	51.255806
1094.269531	54.239716
1092.548828	70.300880
1090.828125	73.284454
1089.105469	66.103607
1087.384766	80.707489
1085.662109	25.628477
1083.939453	37.337452
1082.216797	20.023270
1080.492188	95.565903
1078.769531	63.747540
1077.044922	21.794920
1075.320313	66.850731
1073.595703	49.561829
1071.871094	83.004272
1070.146484	49.786888
1068.419922	55.697876
1066.693359	68.850174
1064.966797	8.154324
1063.240234	54.612087
1061.513672	70.658783
1059.785156	15.797759
1058.056641	5.810774
1056.328125	49.347549
1054.599609	62.500439
1052.871094	-9.650722
1051.140625	58.442909
1049.412109	48.470894
1047.681641	55.844456
1045.951172	-1.787064
1044.218750	30.151924
1042.488281	34.644897
1040.755859	40.582722
1039.023438	101.366615
1037.291016	56.787907
1035.558594	30.985996
1033.826172	-2.014028
1032.091797	28.454630
1030.357422	89.190208
1028.623047	40.351402
1026.888672	73.682045
1025.154297	7.582771
1023.417969	12.101250
1021.681641	56.947083
1019.945313	60.018703
1018.208984	60.212475
1016.472656	73.362747
1014.734375	148.387436
1012.998047	103.971100
1011.259766	107.043556
1009.521484	62.661015
1007.783203	114.630600
1006.042969	87.520813
1004.302734	165.337494
1002.564453	133.923004
1000.824219	91.032913
999.082031	91.251190
997.341797	104.394974
995.599609	174.960846
993.859375	112.015366
992.117188	105.064919
990.373047	118.206360
988.630859	171.507156
986.886719	229.090500
985.144531	170.516159
983.400391	122.004387
981.656250	170.970474
979.910156	145.410828
978.166016	184.328583
976.419922	170.240234
974.673828	179.071365
972.927734	164.995544
971.181641	129.458694
969.433594	208.420593
967.687500	180.048508
965.939453	186.021088
964.191406	176.262772
962.441406	187.958511
960.693359	161.055542
958.943359	158.463058
957.195313	177.306625
955.445313	146.145889
953.693359	170.703140
951.943359	216.670898
950.191406	188.385300
948.441406	200.078827
946.689453	171.813889
944.935547	224.886703
943.183594	190.927979
941.431641	251.108780
939.677734	198.629166
937.923828	218.874252
936.169922	186.381500
934.414063	195.227005
932.660156	174.154572
930.904297	284.126190
929.148438	228.874176
927.392578	317.436707
925.636719	257.935852
923.878906	229.770126
922.123047	218.691132
920.365234	281.585876
918.607422	261.972839
916.849609	215.355911
915.089844	224.200729
913.330078	260.046631
911.572266	322.875885
909.812500	284.818756
908.050781	252.461823
906.291016	276.919556
904.529297	210.510269
902.767578	264.777893
901.005859	256.585449
899.244141	259.748566
897.482422	248.727707
895.718750	310.039642
893.957031	235.213654
892.193359	210.036118
890.427734	268.488678
888.664063	203.644516
886.898438	164.329880
885.134766	245.420380
883.369141	211.781189
881.603516	207.888153
879.835938	254.953537
878.070313	188.791824
876.302734	175.008224
874.535156	165.475586
872.767578	196.959915
871.000000	180.360306
869.230469	153.874939
867.460938	159.907654
865.693359	208.327362
863.921875	126.764320
862.152344	149.751266
860.382813	203.794785
858.611328	130.759705
856.839844	207.370178
855.068359	124.490318
853.296875	119.243111
851.523438	132.336823
849.751953	124.271935
847.978516	161.329620
846.205078	99.699188
844.431641	118.427101
842.656250	120.240349
840.880859	151.636414
839.107422	80.206009
837.332031	66.539711
835.554688	95.114464
833.779297	96.934639
832.001953	97.348122
830.226563	139.967758
828.447266	134.747253
826.669922	160.466797
824.892578	111.659363
823.113281	62.874081
821.333984	106.864090
819.554688	125.544258
817.775391	134.383392
815.996094	96.872002
814.214844	150.647217
812.435547	159.475555
810.654297	110.755737
808.871094	185.542358
807.089844	176.119965
805.306641	69.920738
803.525391	112.413162
801.742188	126.847160
799.958984	104.829910
798.173828	120.660805
796.390625	143.489273
794.605469	132.688690
792.820313	140.098831
791.035156	134.903320
789.248047	160.507935
787.462891	184.700516
785.675781	109.532509
783.888672	100.148888
782.101563	139.722610
780.314453	112.155617
778.525391	147.514084
776.736328	107.375931
774.947266	116.165764
773.158203	127.744972
771.369141	132.333527
769.578125	118.764046
767.789063	126.142342
765.998047	91.637726
764.207031	96.225082
762.414063	92.437332
760.623047	83.068718
758.830078	114.150970
757.037109	79.678619
755.244141	105.167892
753.451172	80.465591
751.656250	80.856506
749.863281	81.244537
748.068359	71.880249
746.271484	98.727112
744.476563	71.258202
742.681641	91.128120
740.884766	66.452080
739.087891	75.178619
737.291016	40.773731
735.494141	53.669292
733.695313	94.367767
731.896484	19.656889
730.097656	25.591202
728.298828	66.260658
726.500000	65.229706
724.701172	61.418064
722.900391	65.937805
721.099609	89.890198
719.298828	97.171417
717.496094	65.587791
715.695313	42.338924
713.892578	14.935503
712.089844	52.725094
710.287109	48.896278
708.484375	90.813484
706.679688	28.758602
704.876953	16.611586
703.072266	61.267891
701.267578	61.577370
699.460938	10.645315
697.656250	49.723179
695.849609	40.333153
694.042969	30.942717
692.236328	93.499001
690.429688	39.826378
688.621094	59.471775
686.812500	11.351665
685.005859	-58.871235
683.195313	6.377783
681.386719	35.666183
679.578125	-29.004841
677.767578	20.986597
675.957031	40.571293
674.146484	0.776572
672.333984	34.149662
670.523438	38.522434
668.710938	26.331766
666.898438	7.243710
665.085938	-15.979121
663.273438	31.120653
661.458984	24.433117
659.644531	-13.955912
657.830078	38.606377
656.015625	-2.536526
654.201172	8.669129
652.384766	14.355889
650.570313	-6.123722
648.753906	-18.342373
646.935547	-41.570671
645.119141	-22.146479
643.300781	8.266733
641.484375	12.530780
639.666016	11.286727
637.847656	-6.458932
636.027344	80.242447
634.208984	29.499256
632.388672	21.355644
630.568359	-33.487225
628.748047	-29.270700
626.925781	-14.080907
625.105469	28.544212
623.283203	16.255407
621.460938	25.914473
619.636719	-70.051262
617.814453	-9.655498
615.990234	-24.698786
614.167969	-50.709503
612.343750	19.211109
610.517578	27.438566
608.693359	-47.904030
606.867188	-23.248415
605.041016	13.710771
603.214844	-53.391533
601.388672	-5.510354
599.562500	-32.915714
597.734375	-30.221647
595.906250	13.493527
594.078125	-35.803215
592.250000	-26.301699
590.419922	-5.878928
588.591797	11.792640
586.761719	0.756776
584.931641	-2.088153
583.099609	-41.812855
581.269531	23.599874
579.437500	-42.067562
577.605469	-12.185310
575.773438	-10.978705
573.941406	32.505566
572.107422	-14.051670
570.273438	25.303949
568.439453	41.457565
566.605469	80.763924
564.771484	9.669638
562.935547	62.568916
561.101563	36.436729
559.265625	25.284876
557.427734	-14.462829
555.591797	64.216316
553.753906	38.065308
551.917969	37.765900
550.080078	85.064835
548.240234	46.655346
546.402344	32.726078
544.562500	58.213543
542.724609	59.216347
540.884766	54.772758
539.042969	63.904884
537.203125	40.426544
535.361328	114.714027
533.519531	81.709984
531.677734	69.068687
529.835938	63.206989
527.994141	77.687202
526.150391	28.399864
524.306641	38.790997
522.462891	20.695120
520.619141	35.127975
518.773438	75.291908
516.927734	44.972584
515.082031	70.194168
513.236328	57.473274
511.390625	4.126798
509.542969	-0.474201
507.697266	65.293655
505.849609	60.659344
504.000000	60.074024
502.152344	13.492809
500.302734	57.519566
498.455078	75.829910
496.605469	-12.657928
494.753906	54.285042
492.904297	-15.266488
491.052734	42.170761
489.203125	7.742273
487.351563	79.979263
485.498047	23.937407
483.646484	-38.837776
481.792969	18.487370
479.939453	47.448483
478.085938	-9.928187
476.232422	50.017822
474.376953	3.428779
472.523438	33.673660
470.667969	35.597240
468.812500	25.385090
466.955078	16.513437
465.099609	23.795328
463.242188	5.483792
461.384766	24.858273
459.527344	11.917584
457.667969	-9.100353
455.810547	-16.666920
453.951172	5.345590
452.091797	30.028032
450.232422	-5.799830
448.371094	-42.965782
446.511719	-25.034769
444.650391	3.625296
442.789063	-18.771612
440.927734	5.828727
439.064453	-3.152340
437.201172	-16.164314
435.337891	17.786251
433.474609	38.298153
431.611328	-23.024311
429.748047	-17.278803
427.882813	5.884531
426.017578	30.370646
424.152344	-16.185808
422.285156	-9.138040
420.419922	-16.833721
418.552734	-3.106298
416.685547	-26.880770
414.818359	-15.846978
412.949219	-39.621197
411.082031	-45.995457
409.212891	3.811260
407.343750	1.430846
405.472656	-21.011452
403.603516	15.373368
401.732422	-39.148514
399.861328	2.559663
397.990234	1.494818
396.119141	-2.244491
394.246094	-15.334083
392.375000	18.307636
390.501953	21.230848
388.628906	1.464154
386.753906	56.417759
384.880859	-19.375525
383.005859	11.550333
381.130859	-18.870628
379.253906	9.372772
377.378906	18.946203
375.501953	-18.120440
373.626953	39.411953
371.748047	13.012108
369.871094	25.240772
367.994141	40.128105
366.115234	73.643372
364.236328	51.258457
362.357422	28.886341
360.478516	74.361145
358.597656	42.691555
356.716797	80.173401
354.835938	114.985008
352.955078	51.448101
351.074219	55.703728
349.191406	94.498871
347.308594	85.475029
345.425781	85.756508
343.542969	5.072536
341.658203	65.107979
339.775391	53.477314
337.890625	51.146244
336.005859	46.173767
334.119141	67.732559
332.234375	105.201958
330.347656	60.492683
328.460938	63.518654
326.574219	95.701836
324.685547	64.308105
322.798828	89.884262
320.910156	78.394089
319.021484	70.895729
317.132813	125.613495
315.242188	91.680687
313.351563	88.204002
311.460938	51.686558
309.570313	50.902969
307.679688	85.830254
305.787109	111.511658
303.896484	30.181223
302.003906	-15.424464
300.111328	30.140978
298.216797	54.583912
296.322266	47.359062
294.429688	52.042286
292.535156	40.915958
290.638672	75.995041
288.744141	53.054955
286.847656	-6.767197
284.951172	44.209064
283.054688	78.059891
281.158203	21.003099
279.259766	112.879181
277.361328	15.076024
275.462891	2.949736
273.564453	21.147409
271.666016	69.649948
269.765625	-0.270540
267.865234	19.348978
265.964844	19.269917
264.064453	73.153793
262.162109	-4.426197
260.261719	61.358646
258.359375	39.105621
256.457031	-8.055512
254.552734	-5.227080
252.650391	4.216494
250.746094	-50.633797
248.841797	58.692444
246.937500	22.335911
245.031250	-12.636407
243.126953	-10.803476
241.220703	-2.354537
239.314453	6.150119
237.406250	33.067421
235.500000	40.372753
233.591797	24.151318
231.683594	-7.719717
229.775391	12.885576
227.865234	-71.215958
225.957031	5.832468
224.046875	14.851094
222.136719	25.247631
220.226563	3.003767
218.314453	-15.227715
216.402344	-9.831614
214.490234	-67.120476
212.578125	-13.184851
210.666016	-19.310383
208.751953	-17.505922
206.839844	34.025631
204.925781	-3.189411
203.009766	-6.343735
201.095703	49.342087
