#Wave		#Intensity
4001.644531	216.199844
4000.500000	170.339264
3999.354492	229.260803
3998.209961	192.107147
3997.064453	165.880295
3995.918945	168.032089
3994.772461	174.546783
3993.626953	191.966232
3992.480469	209.379288
3991.333984	128.657410
3990.187500	128.633804
3989.040039	148.228699
3987.893555	211.405090
3986.746094	226.619522
3985.598633	209.148865
3984.451172	128.515808
3983.302734	152.448395
3982.154297	135.000946
3981.006836	158.923538
3979.857422	169.777542
3978.708984	174.098846
3977.560547	180.594376
3976.411133	169.684036
3975.261719	128.327179
3974.112305	141.351440
3972.961914	180.461761
3971.811523	195.645493
3970.662109	202.129868
3969.511719	171.670181
3968.360352	156.430161
3967.209961	130.334518
3966.058594	197.637695
3964.907227	184.572723
3963.755859	199.736130
3962.604492	154.115860
3961.452148	175.790009
3960.299805	123.681351
3959.147461	221.283844
3957.995117	186.538361
3956.841797	253.732285
3955.689453	173.460266
3954.536133	130.071289
3953.382813	75.860970
3952.228516	210.204605
3951.075195	173.332748
3949.920898	138.640701
3948.766602	166.771408
3947.612305	162.409821
3946.458008	168.875153
3945.302734	218.631439
3944.147461	153.663147
3942.992188	149.307129
3941.836914	157.933563
3940.680664	127.621452
3939.525391	248.707916
3938.369141	147.035019
3937.211914	183.759949
3936.055664	175.080200
3934.898438	149.114944
3933.742188	164.212326
3932.584961	187.945297
3931.426758	192.230499
3930.269531	172.759644
3929.111328	259.091766
3927.953125	155.426453
3926.794922	164.031052
3925.636719	181.264099
3924.477539	159.655640
3923.319336	168.254684
3922.160156	181.163986
3921.000000	209.162735
3919.840820	181.097260
3918.680664	172.441818
3917.520508	209.047195
3916.360352	198.235046
3915.200195	178.809540
3914.040039	183.084473
3912.878906	223.967957
3911.717773	198.089005
3910.556641	180.830536
3909.394531	202.320694
3908.233398	114.053413
3907.071289	187.185257
3905.909180	184.999603
3904.746094	193.568542
3903.583984	152.675934
3902.420898	148.347839
3901.257813	178.414520
3900.094727	232.111023
3898.931641	111.736557
3897.767578	195.502914
3896.603516	204.058823
3895.439453	180.397690
3894.275391	150.303680
3893.111328	210.386337
3891.946289	206.054733
3890.781250	90.132317
3889.616211	160.920883
3888.451172	203.795517
3887.285156	199.468277
3886.119141	199.431473
3884.953125	147.937988
3883.787109	199.357880
3882.620117	199.321091
3881.454102	218.569901
3880.287109	124.261902
3879.120117	137.091278
3877.952148	186.324051
3876.785156	177.724625
3875.617188	190.537003
3874.449219	199.063721
3873.281250	156.225464
3872.112305	164.755341
3870.944336	235.321320
3869.775391	173.250061
3868.606445	233.095917
3867.436523	186.014679
3866.267578	203.081955
3865.097656	211.593689
3863.927734	243.608337
3862.757813	192.286850
3861.587891	93.989532
3860.416992	172.994217
3859.246094	121.714188
3858.075195	155.850769
3856.904297	226.262039
3855.732422	115.244270
3854.560547	179.235733
3853.388672	198.402878
3852.216797	189.834335
3851.044922	202.594696
3849.872070	183.367615
3848.699219	187.597290
3847.526367	164.117294
3846.353516	204.575928
3845.179688	174.709641
3844.005859	185.328384
3842.832031	172.515213
3841.658203	166.095032
3840.484375	223.548126
3839.309570	183.062698
3838.134766	202.183014
3836.959961	106.392426
3835.785156	140.412033
3834.609375	208.452011
3833.434570	212.666794
3832.258789	150.965485
3831.082031	176.448120
3829.906250	157.286087
3828.729492	176.382828
3827.552734	127.482056
3826.375977	191.187698
3825.199219	180.532745
3824.021484	195.363968
3822.844727	157.111496
3821.666992	199.537125
3820.489258	174.032074
3819.310547	161.268158
3818.131836	203.669418
3816.954102	209.995193
3815.774414	190.869370
3814.595703	169.630249
3813.416992	142.039017
3812.237305	144.132309
3811.057617	199.204819
3809.877930	146.197723
3808.697266	141.933807
3807.516602	167.323792
3806.336914	146.116486
3805.155273	99.510178
3803.974609	177.815018
3802.792969	179.898529
3801.612305	179.865189
3800.430664	154.443832
3799.248047	169.222137
3798.066406	205.143814
3796.883789	190.304337
3795.701172	173.356247
3794.518555	196.574905
3793.335938	204.991730
3792.152344	202.840805
3790.968750	166.890121
3789.785156	152.074188
3788.601563	185.833984
3787.417969	168.908646
3786.233398	162.544434
3785.048828	251.158432
3783.864258	177.255417
3782.678711	173.002945
3781.494141	135.001648
3780.308594	160.284714
3779.123047	160.254974
3777.937500	132.818283
3776.750977	193.920868
3775.564453	164.380661
3774.377930	166.457214
3773.191406	147.466354
3772.004883	202.202042
3770.817383	136.882217
3769.629883	181.072083
3768.442383	170.512970
3767.254883	162.062485
3766.066406	258.830963
3764.878906	212.496536
3763.690430	134.626266
3762.500977	174.561020
3761.312500	182.939621
3760.123047	185.008011
3758.933594	121.914452
3757.744141	176.532959
3756.554688	105.059624
3755.364258	130.249725
3754.173828	184.836243
3752.983398	142.801468
3751.792969	201.564606
3750.602539	201.527161
3749.411133	142.721878
3748.219727	190.959961
3747.028320	121.688118
3745.835938	157.326080
3744.644531	201.339951
3743.452148	94.360558
3742.259766	148.852310
3741.067383	182.362595
3739.874023	217.956131
3738.680664	186.485474
3737.487305	123.602211
3736.293945	201.078064
3735.100586	188.475632
3733.906250	134.002182
3732.711914	169.564972
3731.517578	190.463486
3730.323242	192.520676
3729.127930	205.038223
3727.932617	163.163330
3726.737305	188.230347
3725.541992	177.740021
3724.345703	167.253601
3723.150391	125.416862
3721.954102	183.910492
3720.757813	160.891739
3719.560547	165.040024
3718.364258	152.476944
3717.166992	185.861954
3715.969727	123.188919
3714.771484	181.617630
3713.574219	154.450607
3712.375977	173.202881
3711.177734	171.084244
3709.979492	179.396393
3708.780273	127.222588
3707.582031	183.500046
3706.382813	177.211349
3705.183594	173.009430
3703.983398	168.809082
3702.784180	210.451126
3701.583984	197.912201
3700.383789	156.217361
3699.182617	185.343399
3697.982422	154.077026
3696.781250	154.048325
3695.580078	174.833069
3694.378906	195.610077
3693.177734	181.009628
3691.975586	143.532593
3690.773438	153.904816
3689.571289	158.034943
3688.369141	176.716660
3687.166016	189.155502
3685.962891	203.667938
3684.759766	162.072830
3683.556641	155.810196
3682.352539	162.012390
3681.149414	199.362671
3679.945313	207.630722
3678.740234	211.743820
3677.536133	157.740479
3676.331055	149.410477
3675.126953	199.176804
3673.920898	174.247177
3672.715820	170.066696
3671.510742	163.814178
3670.304688	170.003235
3669.098633	176.189987
3667.891602	153.360306
3666.685547	116.034782
3665.478516	151.231400
3664.271484	180.201035
3663.064453	209.159851
3661.857422	109.736656
3660.649414	107.646049
3659.441406	213.182175
3658.233398	194.518280
3657.025391	157.240723
3655.816406	169.622787
3654.607422	142.704712
3653.398438	177.830627
3652.189453	157.123291
3650.980469	196.367432
3649.770508	171.531067
3648.560547	167.366516
3647.350586	128.083771
3646.139648	175.565918
3644.929688	156.947250
3643.718750	194.082687
3642.507813	198.175064
3641.295898	171.306839
3640.084961	150.639297
3638.873047	125.853149
3637.661133	200.089722
3636.449219	160.866806
3635.236328	171.146790
3634.023438	150.498550
3632.810547	115.429352
3631.597656	216.389572
3630.384766	218.409576
3629.170898	158.626343
3627.957031	162.716064
3626.743164	125.618019
3625.529297	135.889160
3624.314453	158.507690
3623.099609	185.234070
3621.884766	119.350739
3620.669922	168.705673
3619.454102	176.902115
3618.239258	226.227814
3617.023438	172.723450
3615.806641	193.249603
3614.590820	193.213440
3613.374023	191.122192
3612.157227	180.812958
3610.940430	176.670486
3609.723633	143.774643
3608.505859	162.229584
3607.288086	170.411819
3606.070313	197.065918
3604.852539	168.295624
3603.633789	162.108109
3602.415039	139.509964
3601.196289	192.815887
3599.977539	174.322128
3598.758789	174.289474
3597.539063	139.405457
3596.319336	219.317505
3595.099609	131.155991
3593.878906	170.061050
3592.659180	186.417542
3591.438477	143.371231
3590.217773	165.869919
3588.996094	194.502335
3587.775391	153.525696
3586.553711	171.916550
3585.332031	147.329422
3584.109375	153.439377
3582.887695	137.046814
3581.665039	143.156387
3580.442383	155.397797
3579.219727	206.476776
3577.996094	183.954697
3576.773438	141.005493
3575.549805	173.669846
3574.325195	100.096779
3573.101563	183.816742
3571.876953	159.277954
3570.652344	169.456284
3569.427734	157.176941
3568.203125	200.005859
3566.977539	169.360931
3565.752930	120.366508
3564.526367	150.939835
3563.300781	152.950851
3562.075195	130.493561
3560.848633	209.973663
3559.622070	187.514084
3558.395508	177.289825
3557.167969	167.069382
3555.940430	183.334412
3554.712891	199.593323
3553.485352	146.612457
3552.257813	201.554276
3551.029297	140.450836
3549.800781	193.338028
3548.572266	199.405991
3547.343750	166.818573
3546.114258	205.433060
3544.884766	185.058380
3543.655273	164.691360
3542.425781	182.956009
3541.195313	186.986572
3539.965820	211.336395
3538.734375	219.423492
3537.503906	213.288300
3536.273438	121.856125
3535.041992	158.383194
3533.810547	142.112045
3532.579102	221.247162
3531.346680	170.470352
3530.115234	131.886780
3528.882813	182.578125
3527.650391	180.515533
3526.416992	158.174881
3525.184570	194.640167
3523.951172	176.359482
3522.717773	168.219360
3521.483398	149.950500
3520.250000	220.831497
3519.015625	186.354828
3517.781250	186.319763
3516.545898	125.539696
3515.311523	180.176315
3514.076172	159.901688
3512.840820	159.871597
3511.605469	139.608414
3510.369141	175.994873
3509.133789	157.758804
3507.897461	188.061646
3506.660156	240.592728
3505.423828	181.926636
3504.186523	177.850327
3502.949219	175.796204
3501.711914	131.317261
3500.474609	183.809555
3499.236328	179.735931
3497.998047	173.644714
3496.759766	163.518295
3495.521484	181.652771
3494.282227	145.294846
3493.042969	173.513931
3491.803711	175.498474
3490.564453	155.296967
3489.324219	147.201859
3488.084961	151.206299
3486.844727	169.319138
3485.603516	199.517090
3484.363281	179.330048
3483.122070	189.369080
3481.880859	211.489426
3480.639648	151.035400
3479.397461	239.597672
3478.156250	191.239395
3476.914063	187.178009
3475.671875	169.032135
3474.428711	96.571579
3473.186523	158.910751
3471.943359	148.825043
3470.700195	203.087769
3469.456055	231.194931
3468.212891	156.780899
3466.968750	98.471992
3465.724609	114.527443
3464.479492	168.745438
3463.235352	154.654144
3461.990234	142.576263
3460.745117	202.781494
3459.499023	120.441521
3458.253906	178.621201
3457.007813	194.640305
3455.761719	214.665802
3454.515625	146.426590
3453.268555	180.491867
3452.021484	238.605301
3450.775391	134.315445
3449.527344	232.502228
3448.280273	236.466232
3447.032227	150.267960
3445.784180	220.351395
3444.536133	148.208389
3443.287109	128.156021
3442.039063	128.131821
3440.790039	166.139572
3439.541016	152.099060
3438.291016	214.099014
3437.041992	166.045441
3435.791992	228.019318
3434.541992	167.982483
3433.291016	177.947815
3432.041016	147.928650
3430.790039	105.928879
3429.539063	189.836639
3428.287109	135.857376
3427.036133	185.769836
3425.784180	173.751831
3424.532227	171.722214
3423.280273	155.718613
3422.027344	179.641342
3420.774414	165.637924
3419.521484	123.706131
3418.268555	205.472946
3417.014648	159.560455
3415.761719	145.571381
3414.507813	131.587585
3413.252930	203.324158
3411.999023	165.418762
3410.744141	187.306290
3409.489258	175.317383
3408.234375	167.316757
3406.978516	129.446793
3405.723633	203.093460
3404.467773	165.231049
3403.210938	173.161224
3401.955078	117.408943
3400.698242	185.033310
3399.441406	173.062912
3398.184570	147.175064
3396.927734	178.962814
3395.669922	129.226456
3394.412109	139.140594
3393.154297	198.734650
3391.896484	117.231239
3390.637695	143.034760
3389.378906	150.952545
3388.120117	182.697403
3386.861328	182.662811
3385.601563	200.494003
3384.341797	180.608887
3383.082031	170.652985
3381.822266	117.053703
3380.561523	166.621155
3379.300781	184.438461
3378.040039	180.437851
3376.779297	196.263321
3375.517578	170.459045
3374.256836	168.445038
3372.995117	152.562454
3371.732422	168.381180
3370.470703	160.426941
3369.208008	156.436111
3367.945313	164.325775
3366.682617	245.452194
3365.418945	122.702820
3364.155273	195.891541
3362.891602	154.309525
3361.627930	168.125916
3360.363281	140.407959
3359.099609	181.902557
3357.834961	175.937561
3356.569336	166.021927
3355.304688	177.846893
3354.039063	160.031830
3352.773438	193.582016
3351.507813	116.522156
3350.241211	183.635666
3348.975586	201.368637
3347.708984	181.592133
3346.442383	173.663849
3345.174805	155.873184
3343.907227	177.543335
3342.639648	165.675644
3341.372070	207.055237
3340.104492	197.158020
3338.835938	116.301140
3337.567383	197.083145
3336.298828	130.050171
3335.029297	155.636551
3333.760742	163.485825
3332.491211	183.148117
3331.221680	200.833969
3329.951172	175.204178
3328.681641	198.789444
3327.411133	188.912476
3326.139648	198.713898
3324.869141	190.807785
3323.597656	184.871368
3322.327148	145.509369
3321.054688	123.856056
3319.783203	145.454056
3318.510742	167.043854
3317.238281	184.695724
3315.965820	172.873764
3314.693359	151.235779
3313.419922	164.953125
3312.146484	164.921753
3310.873047	168.816345
3309.599609	151.120773
3308.325195	180.525543
3307.050781	168.720032
3305.776367	164.764969
3304.501953	137.278015
3303.226563	231.367493
3301.951172	174.472794
3300.675781	168.559601
3299.400391	139.133194
3298.124023	162.617706
3296.847656	144.956863
3295.571289	160.597305
3294.294922	142.943558
3293.017578	191.860306
3291.740234	217.269806
3290.462891	187.873245
3289.185547	226.970276
3287.907227	207.364380
3286.628906	195.589523
3285.350586	183.819138
3284.072266	172.053238
3282.792969	187.658691
3281.513672	175.896515
3280.234375	154.368637
3278.955078	205.134430
3277.674805	185.562454
3276.394531	171.856689
3275.114258	193.301926
3273.833984	173.743378
3272.552734	122.963448
3271.272461	156.114304
3269.990234	204.860962
3268.708984	173.610962
3267.426758	167.726929
3266.145508	136.495895
3264.862305	187.158691
3263.580078	134.494659
3262.296875	200.729111
3261.014648	161.721741
3259.731445	192.860229
3258.447266	179.189468
3257.164063	179.155304
3255.879883	210.272629
3254.595703	177.140366
3253.310547	192.676392
3252.026367	165.397659
3250.741211	194.548355
3249.456055	136.157867
3248.169922	130.297668
3246.884766	163.327103
3245.598633	180.791916
3244.312500	136.053970
3243.025391	155.460571
3241.739258	151.545135
3240.452148	178.711426
3239.165039	170.908722
3237.876953	198.060928
3236.589844	153.370850
3235.301758	168.869827
3234.013672	184.362869
3232.724609	174.626205
3231.436523	149.373901
3230.147461	188.136368
3228.857422	209.431412
3227.568359	158.982361
3226.278320	209.351410
3224.989258	203.497208
3223.698242	220.897614
3222.408203	131.738312
3221.117188	187.884933
3219.826172	185.912445
3218.535156	178.132034
3217.244141	166.482910
3215.952148	164.515610
3214.660156	176.094818
3213.368164	166.387466
3212.076172	162.486923
3210.783203	146.983871
3209.490234	148.889389
3208.197266	137.261368
3206.903320	183.624466
3205.610352	179.724304
3204.316406	131.386185
3203.022461	154.542435
3201.727539	198.935318
3200.432617	173.793732
3199.137695	198.859222
3197.842773	154.424210
3196.547852	192.993332
3195.251953	152.435562
3193.956055	189.061096
3192.660156	208.313171
3191.363281	144.634247
3190.067383	144.606552
3188.770508	154.217468
3187.472656	150.333252
3186.175781	188.844086
3184.877930	134.862808
3183.580078	194.550522
3182.282227	206.068512
3180.983398	169.444458
3179.684570	111.657913
3178.385742	169.379562
3177.086914	203.986313
3175.788086	171.238724
3174.488281	117.343384
3173.188477	217.332169
3171.887695	173.063263
3170.587891	196.100784
3169.287109	209.518524
3167.986328	182.572906
3166.685547	149.873230
3165.383789	186.345108
3164.082031	153.657227
3162.780273	180.512634
3161.478516	211.197708
3160.175781	149.729660
3158.873047	172.731873
3157.570313	174.617645
3156.267578	197.606247
3154.963867	187.977661
3153.660156	218.625961
3152.356445	166.814133
3151.052734	185.952499
3149.748047	203.166855
3148.443359	149.471466
3147.138672	149.442795
3145.833984	145.582993
3144.528320	199.180603
3143.222656	137.867813
3141.916992	218.248825
3140.610352	128.244431
3139.304688	204.768967
3137.998047	187.509415
3136.691406	153.039536
3135.383789	131.971268
3134.076172	206.524063
3132.768555	187.365494
3131.460938	110.868492
3130.153320	198.760513
3128.844727	137.577011
3127.536133	171.938232
3126.227539	148.984528
3124.917969	187.149734
3123.608398	181.385818
3122.298828	208.076385
3120.989258	135.509964
3119.678711	160.290848
3118.369141	188.877914
3117.057617	192.656616
3115.747070	112.520363
3114.436523	240.251541
3113.125000	223.047852
3111.813477	169.636276
3110.500977	188.660263
3109.189453	142.896973
3107.876953	144.774429
3106.564453	180.933243
3105.250977	150.431351
3103.937500	201.805801
3102.625000	234.125854
3101.310547	125.604355
3099.997070	205.494873
3098.682617	171.212799
3097.368164	125.531898
3096.053711	148.327347
3094.739258	178.719086
3093.423828	176.783813
3092.108398	155.843903
3090.792969	167.214951
3089.476563	170.982376
3088.160156	170.949478
3086.843750	119.641609
3085.527344	129.112122
3084.210938	138.578995
3082.893555	199.287582
3081.576172	132.832809
3080.257813	165.060425
3078.940430	157.441132
3077.622070	155.514297
3076.303711	182.030472
3074.984375	193.370132
3073.666016	189.542053
3072.346680	185.715454
3071.027344	185.679688
3069.707031	130.708481
3068.387695	160.986664
3067.067383	147.700485
3065.747070	189.323120
3064.425781	193.072372
3063.104492	153.292648
3061.783203	151.370972
3060.461914	189.177246
3059.140625	158.878265
3057.818359	219.361038
3056.496094	187.177216
3055.173828	207.934601
3053.850586	162.535721
3052.527344	164.393967
3051.204102	145.470062
3049.880859	179.441437
3048.556641	151.079453
3047.233398	200.141663
3045.909180	196.327545
3044.583984	167.978668
3043.259766	183.042557
3041.934570	169.800552
3040.608398	196.176117
3039.283203	201.796112
3037.957031	194.214859
3036.630859	120.653908
3035.304688	197.909622
3033.978516	135.683273
3032.651367	195.949127
3031.324219	152.584763
3029.997070	173.272705
3028.668945	180.771408
3027.341797	124.256348
3026.013672	176.936996
3024.684570	214.541748
3023.356445	180.631851
3022.027344	159.903580
3020.698242	141.064148
3019.368164	141.036896
3018.039063	139.129532
3016.708984	187.976578
3015.378906	187.940262
3014.047852	169.113571
3012.717773	165.323547
3011.386719	152.143402
3010.055664	167.137619
3008.723633	208.412262
3007.392578	206.494766
3006.060547	138.887817
3004.727539	78.812981
3003.395508	165.100052
3002.062500	159.440811
3000.729492	187.541168
2999.396484	170.629471
2998.062500	174.345856
2996.728516	138.699997
2995.394531	168.656570
2994.060547	215.463943
2992.725586	183.577240
2991.390625	166.685867
2990.055664	155.418549
2988.720703	95.479675
2987.384766	239.588913
2986.048828	123.514130
2984.712891	179.622162
2983.376953	183.328812
2982.040039	215.089127
2980.703125	192.607758
2979.366211	196.309723
2978.028320	188.794708
2976.690430	171.938141
2975.352539	147.613953
2974.014648	141.980881
2972.675781	168.102692
2971.336914	209.153961
2969.998047	197.910965
2968.659180	181.072144
2967.319336	149.308929
2965.979492	220.188019
2964.639648	182.832596
2963.299805	136.165253
2961.958984	192.086365
2960.618164	173.403610
2959.277344	111.851624
2957.935547	180.791763
2956.593750	149.077713
2955.251953	180.721710
2953.910156	197.451431
2952.567383	134.091965
2951.225586	122.893814
2949.881836	165.688324
2948.539063	219.634079
2947.195313	184.233551
2945.852539	160.010239
2944.507813	180.441666
2943.164063	202.725037
2941.819336	132.024658
2940.474609	217.519562
2939.129883	180.301758
2937.784180	195.134155
2936.439453	163.509293
2935.093750	170.908371
2933.747070	180.161911
2932.401367	183.840927
2931.054688	200.514832
2929.708008	148.500687
2928.360352	163.319061
2927.013672	183.698288
2925.666016	133.572830
2924.318359	179.917358
2922.969727	163.192307
2921.621094	161.306534
2920.272461	172.397659
2918.923828	144.563507
2917.575195	190.860916
2916.225586	168.591949
2914.875977	174.116104
2913.525391	174.082291
2912.175781	192.564285
2910.825195	175.865906
2909.474609	122.156799
2908.123047	131.385574
2906.772461	172.063171
2905.420898	147.982574
2904.069336	229.328430
2902.716797	142.377884
2901.364258	144.198929
2900.011719	164.502701
2898.659180	155.230804
2897.305664	162.591141
2895.953125	162.559540
2894.599609	168.068665
2893.245117	125.565353
2891.891602	144.002853
2890.537109	191.966476
2889.181641	155.019699
2887.827148	202.962509
2886.471680	177.096466
2885.116211	143.862900
2883.760742	132.770691
2882.405273	140.119583
2881.048828	180.645370
2879.692383	149.279892
2878.334961	169.519485
2876.978516	114.219162
2875.621094	152.876541
2874.263672	165.737488
2872.905273	171.228745
2871.547852	180.399475
2870.189453	195.087997
2868.830078	147.207565
2867.471680	167.416000
2866.112305	152.668396
2864.752930	156.316711
2863.393555	156.286270
2862.033203	172.800583
2860.672852	200.336121
2859.312500	156.194992
2857.952148	126.768890
2856.590820	216.750946
2855.229492	216.708740
2853.868164	156.073349
2852.505859	178.072525
2851.144531	93.607521
2849.782227	144.971634
2848.418945	176.133743
2847.056641	176.099411
2845.693359	155.890976
2844.330078	192.533676
2842.965820	142.997131
2841.602539	153.966904
2840.238281	141.108810
2838.874023	161.235779
2837.508789	155.708740
2836.143555	212.455200
2834.778320	173.959564
2833.413086	148.294495
2832.046875	142.774261
2830.681641	157.387070
2829.314453	171.994171
2827.948242	153.666946
2826.581055	210.336319
2825.214844	162.750259
2823.846680	164.546814
2822.479492	188.277939
2821.111328	160.827438
2819.743164	188.204468
2818.375000	158.937805
2817.005859	147.947693
2815.636719	191.746613
2814.267578	188.057587
2812.898438	208.100769
2811.528320	189.809250
2810.158203	206.194794
2808.788086	155.071991
2807.416992	175.105927
2806.046875	164.129761
2804.675781	153.157852
2803.303711	196.878784
2801.932617	169.501389
2800.560547	209.557556
2799.188477	167.613297
2797.815430	187.617355
2796.443359	152.978439
2795.070313	194.827316
2793.696289	149.277740
2792.323242	165.629501
2790.949219	191.073608
2789.575195	158.287201
2788.201172	154.618179
2786.826172	203.692368
2785.451172	200.015900
2784.076172	185.433029
2782.701172	187.214386
2781.325195	130.842712
2779.949219	199.859512
2778.573242	167.122543
2777.196289	156.192688
2775.819336	179.768036
2774.442383	216.042557
2773.065430	143.395157
2771.687500	123.404594
2770.309570	208.658112
2768.931641	201.361038
2767.553711	139.655548
2766.174805	159.575104
2764.795898	146.852890
2763.416992	177.639084
2762.037109	172.167450
2760.657227	137.707001
2759.277344	186.592697
2757.897461	182.933716
2756.516602	152.113098
2755.135742	168.377960
2753.754883	175.585632
2752.373047	142.974731
2750.991211	168.279053
2749.609375	128.445953
2748.227539	186.300583
2746.844727	189.880875
2745.461914	177.187424
2744.079102	186.191116
2742.696289	128.320190
2741.312500	159.013580
2739.928711	198.728012
2738.544922	193.270279
2737.160156	193.232407
2735.775391	182.361191
2734.390625	160.663025
2733.005859	193.118805
2731.620117	176.840485
2730.234375	155.156128
2728.848633	203.827957
2727.461914	178.539917
2726.076172	129.821747
2724.689453	173.061722
2723.301758	176.632523
2721.915039	194.618073
2720.527344	174.761581
2719.138672	181.932541
2717.750977	226.920822
2716.362305	113.438156
2714.973633	207.029022
2713.584961	178.190002
2712.195313	206.947769
2710.806641	197.911194
2709.416016	194.274673
2708.026367	116.901619
2706.635742	163.630142
2705.245117	174.384705
2703.854492	141.996780
2702.462891	213.851883
2701.072266	213.809891
2699.680664	152.691360
2698.288086	167.029495
2696.896484	170.588028
2695.503906	192.098251
2694.110352	166.931107
2692.717773	202.790421
2691.324219	159.688507
2689.930664	102.252327
2688.537109	172.180603
2687.142578	177.526352
2685.748047	170.320099
2684.353516	152.361725
2682.958984	206.095932
2681.563477	175.595062
2680.167969	197.057755
2678.771484	186.272522
2677.375977	186.235901
2675.979492	136.068710
2674.583008	166.472397
2673.185547	218.340195
2671.789063	180.721497
2670.391602	180.685959
2668.993164	160.975616
2667.595703	225.321548
2666.197266	178.791443
2664.798828	137.642334
2663.400391	191.231583
2662.000977	144.735611
2660.601563	191.156342
2659.202148	148.250961
2657.801758	150.007599
2656.401367	176.759872
2655.000977	151.733658
2653.600586	192.753052
2652.199219	187.361908
2650.797852	210.517654
2649.396484	165.883789
2647.995117	192.601303
2646.592773	183.648407
2645.190430	87.349510
2643.787109	201.399002
2642.384766	197.795456
2640.981445	169.251053
2639.578125	126.467979
2638.173828	178.088821
2636.769531	172.712128
2635.365234	169.117722
2633.960938	140.607025
2632.555664	170.830566
2631.150391	151.226425
2629.745117	156.532974
2628.339844	168.951141
2626.933594	177.808258
2625.527344	131.552170
2624.121094	156.409576
2622.713867	149.270615
2621.306641	222.085098
2619.899414	174.080383
2618.492188	206.013702
2617.083984	186.441147
2615.675781	129.595428
2614.266602	149.094086
2612.858398	172.134201
2611.449219	115.324913
2610.040039	195.126724
2608.629883	164.938232
2607.220703	179.091125
2605.810547	218.058029
2604.399414	219.787476
2602.989258	194.934280
2601.578125	138.198853
2600.166992	200.171631
2598.754883	168.252670
2597.343750	171.760910
2595.930664	161.104706
2594.518555	161.072906
2593.106445	169.889511
2591.693359	171.625290
2590.280273	141.518677
2588.866211	171.557510
2587.452148	183.901611
2586.038086	190.937027
2584.624023	173.223450
2583.208984	194.396072
2581.794922	194.357666
2580.378906	204.918503
2578.963867	176.618973
2577.547852	146.564774
2576.131836	206.562531
2574.715820	171.218842
2573.298828	190.597733
2571.881836	137.626709
2570.464844	204.635147
2569.047852	141.099792
2567.629883	163.996078
2566.211914	174.541946
2564.793945	197.422546
2563.375000	193.858795
2561.956055	126.864296
2560.537109	163.833969
2559.118164	170.846802
2557.698242	174.334915
2556.278320	184.864090
2554.857422	170.745407
2553.437500	154.872406
2552.016602	174.196976
2550.595703	168.884857
2549.173828	165.333694
2547.752930	138.923157
2546.330078	209.222565
2544.908203	189.845078
2543.485352	191.564972
2542.063477	205.584076
2540.639648	187.975571
2539.216797	182.669037
2537.792969	191.413300
2536.369141	168.550797
2534.945313	154.474304
2533.520508	163.218918
2532.095703	173.714752
2530.670898	198.241196
2529.245117	194.693924
2527.819336	157.828659
2526.393555	192.863464
2524.967773	184.060471
2523.541016	182.271378
2522.114258	190.996567
2520.687500	180.447220
2519.260742	126.112862
2517.833008	178.624466
2516.405273	175.087311
2514.976563	145.293655
2513.547852	175.017883
2512.119141	192.481506
2510.690430	187.194885
2509.261719	134.683624
2507.832031	229.091614
2506.402344	136.378647
2504.971680	181.802109
2503.541016	173.027298
2502.110352	200.951431
2500.679688	160.729248
2499.248047	176.417755
2497.816406	178.129105
2496.384766	144.919434
2494.953125	221.700180
2493.520508	171.041763
2492.087891	239.061951
2490.655273	174.463135
2489.221680	146.519943
2487.788086	151.722656
2486.354492	113.333504
2484.919922	179.554352
2483.485352	158.603897
2482.050781	170.770279
2480.616211	160.283112
2479.180664	161.993134
2477.745117	203.757324
2476.309570	130.587723
2474.873047	200.194733
2473.437500	222.781174
2472.000000	180.973724
2470.563477	173.978622
2469.125977	184.380692
2467.688477	179.126755
2466.250977	194.739899
2464.812500	173.840347
2463.374023	185.972198
2461.935547	163.344955
2460.497070	191.110352
2459.057617	171.965118
2457.618164	149.354126
2456.177734	175.369385
2454.738281	201.374298
2453.297852	211.748077
2451.857422	180.470657
2450.416016	152.675552
2448.974609	168.256622
2447.533203	161.286118
2446.091797	142.180969
2444.649414	143.886246
2443.207031	147.324051
2441.764648	185.418076
2440.321289	195.776382
2438.877930	162.825806
2437.434570	154.134171
2435.990234	141.982986
2434.546875	197.351685
2433.101563	181.735107
2431.657227	181.698914
2430.211914	155.710907
2428.766602	167.788345
2427.321289	186.778671
2425.875977	148.701538
2424.429688	164.230621
2422.983398	167.654694
2421.536133	188.357956
2420.089844	184.865005
2418.642578	157.190308
2417.194336	148.523880
2415.747070	184.754501
2414.298828	188.170349
2412.849609	196.762802
2411.401367	181.192764
2409.952148	184.607254
2408.502930	186.295410
2407.052734	212.127457
2405.603516	187.945389
2404.152344	148.257614
2402.703125	165.463882
2401.251953	143.028778
2399.800781	180.903931
2398.349609	189.480606
2396.898438	199.776047
2395.445313	187.683151
2393.994141	173.873535
2392.541016	168.675323
2391.087891	187.570831
2389.634766	220.222702
2388.181641	175.454941
2386.728516	199.497177
2385.275391	178.823837
2383.820313	159.877853
2382.365234	171.877350
2380.910156	180.435196
2379.455078	159.782120
2378.000000	163.185699
2376.544922	194.066330
2375.089844	137.364655
2373.632813	181.971817
2372.175781	199.099197
2370.718750	185.331192
2369.261719	156.127502
2367.804688	178.395782
2366.347656	157.780121
2364.888672	174.895172
2363.429688	150.859802
2361.972656	200.534882
2360.513672	195.353912
2359.054688	197.028152
2357.593750	183.285202
2356.134766	167.835144
2354.673828	188.348724
2353.214844	166.056122
2351.753906	181.427109
2350.292969	186.524521
2348.832031	208.728821
2347.369141	244.608627
2345.908203	194.963684
2344.445313	153.887909
2342.984375	188.047592
2341.521484	201.683426
2340.058594	186.263519
2338.593750	181.100754
2337.130859	191.313461
2335.667969	138.332932
2334.203125	148.550079
2332.738281	204.855667
2331.273438	177.506042
2329.808594	199.654312
2328.343750	174.022766
2326.878906	134.755356
2325.412109	218.294083
2323.945313	194.379227
2322.478516	156.836044
2321.011719	138.056244
2319.544922	148.252945
2318.078125	146.519531
2316.611328	177.150909
2315.142578	178.818466
2313.673828	139.620728
2312.205078	207.686783
2310.736328	171.902969
2309.267578	180.376862
2307.798828	156.522125
2306.328125	144.583847
2304.859375	153.058105
2303.388672	153.027420
2301.917969	158.096634
2300.447266	159.764557
2298.974609	168.228943
2297.503906	129.119553
2296.031250	200.434906
2294.560547	186.808624
2293.087891	181.677399
2291.615234	139.201492
2290.142578	166.329376
2288.667969	137.448746
2287.195313	186.621353
2285.720703	200.153641
2284.246094	152.628922
2282.773438	152.598297
2281.296875	157.653275
2279.822266	203.382751
2278.347656	188.091278
2276.871094	215.160339
2275.396484	208.341812
2273.919922	181.204056
2272.443359	189.633453
2270.966797	155.739059
2269.488281	145.552933
2268.011719	191.211380
2266.533203	138.727295
2265.056641	191.134583
2263.578125	162.347198
2262.099609	202.893234
2260.619141	162.281982
2259.140625	133.517715
2257.662109	128.421616
2256.181641	195.972565
2254.701172	212.823975
2253.220703	140.165390
2251.740234	204.296432
2250.259766	189.062820
2248.777344	205.902039
2247.296875	134.990585
2245.814453	141.711624
2244.332031	192.284241
2242.849609	198.991043
2241.367188	161.858459
2239.884766	180.368454
2238.400391	141.569183
2236.917969	166.815842
2235.433594	229.115067
2233.949219	168.433075
2232.464844	158.295227
2230.978516	161.630692
2229.494141	127.931885
2228.009766	213.737885
2226.523438	163.215775
2225.037109	166.547516
2223.550781	185.015549
2222.064453	164.798859
2220.576172	184.941071
2219.089844	196.670456
2217.601563	157.976929
2216.115234	196.591263
2214.626953	203.271393
2213.138672	159.561096
2211.648438	137.698685
2210.160156	147.744431
2208.669922	156.107559
2207.181641	186.284393
2205.691406	208.059555
2204.201172	129.172241
2202.710938	171.076797
2201.218750	167.688553
2199.728516	179.390594
2198.236328	147.506454
2196.744141	202.780502
2195.251953	177.606613
2193.759766	177.570816
2192.267578	139.013275
2190.775391	170.801147
2189.281250	184.160172
2187.787109	143.950729
2186.294922	133.880661
2184.800781	175.682922
2183.304688	225.832489
2181.810547	173.939560
2180.316406	152.166412
2178.820313	193.931244
2177.324219	183.863220
2175.828125	212.235611
2174.332031	165.410126
2172.835938	207.138550
2171.337891	170.353775
2169.841797	161.970398
2168.343750	203.674225
2166.845703	140.206406
2165.347656	140.178101
2163.849609	176.855698
2162.351563	168.479431
2160.851563	233.488678
2159.353516	173.413712
2157.853516	143.370834
2156.353516	193.344864
2154.853516	228.300827
2153.353516	161.610992
2151.851563	169.907135
2150.351563	196.519516
2148.849609	159.847977
2147.347656	214.752319
2145.845703	179.756317
2144.343750	156.422943
2142.839844	158.055069
2141.337891	159.686523
2139.833984	169.632629
2138.330078	191.213821
2136.826172	156.264908
2135.322266	161.219482
2133.818359	166.172043
2132.314453	197.704742
2130.808594	176.071136
2129.302734	154.446259
2127.796875	142.792389
2126.291016	177.624359
2124.785156	212.442230
2123.279297	189.168076
2121.771484	162.585266
2120.263672	185.774139
2118.757813	230.512314
2117.250000	164.144608
2115.740234	190.634445
2114.232422	150.819336
2112.724609	160.730927
2111.214844	145.788223
2109.705078	139.133316
2108.195313	162.289337
2106.685547	175.501892
2105.175781	172.155670
2103.664063	188.670883
2102.154297	191.942017
2100.642578	188.594467
2099.130859	168.708237
2097.619141	201.747406
2096.107422	135.573242
2094.595703	161.993729
2093.082031	170.224213
2091.570313	160.275757
2090.056641	165.199249
2088.542969	178.379028
2087.029297	184.948166
2085.513672	160.145844
2084.000000	191.475800
2082.484375	148.528687
2080.968750	155.098511
2079.455078	150.118118
2077.937500	201.216446
2076.421875	131.918442
2074.906250	196.188889
2073.388672	151.644684
2071.873047	187.869415
2070.355469	146.640228
2068.837891	110.369690
2067.320313	179.520233
2065.800781	179.483795
2064.283203	187.678909
2062.763672	153.075409
2061.244141	125.068489
2059.724609	212.244217
2058.205078	152.982208
2056.685547	113.479889
2055.164063	172.651733
2053.644531	161.108902
2052.123047	167.650726
2050.601563	190.622879
2049.080078	161.010757
2047.558594	174.119125
2046.035156	149.449265
2044.513672	205.245758
2042.990234	198.637527
2041.466797	147.716904
2039.943359	157.532684
2038.419922	142.734985
2036.896484	159.108963
2035.371094	147.596878
2033.847656	132.810181
2032.322266	154.094070
2030.796875	183.564133
2029.271484	191.719971
2027.744141	170.383102
2026.218750	160.520660
2024.691406	155.575134
2023.164063	217.760880
2021.636719	183.340286
2020.109375	180.029739
2018.582031	132.540390
2017.054688	170.140686
2015.525391	171.741714
2013.996094	171.706772
2012.468750	199.466324
2010.939453	165.098358
2009.408203	189.579330
2007.878906	165.031158
2006.347656	158.463013
2004.818359	135.564468
2003.287109	166.563385
2001.755859	146.937775
2000.224609	145.275543
1998.691406	151.773880
1997.160156	171.322708
1995.626953	168.025192
1994.093750	195.717636
1992.560547	216.876205
1991.027344	197.268234
1989.494141	159.738419
1987.960938	161.335526
1986.425781	130.345581
1984.890625	187.333603
1983.355469	136.807098
1981.820313	195.398880
1980.285156	167.683182
1978.750000	172.531982
1977.212891	180.633469
1975.675781	139.921722
1974.138672	141.519867
1972.601563	188.654678
1971.064453	165.852188
1969.527344	183.700729
1967.988281	143.029800
1966.451172	208.000916
1964.912109	190.087067
1963.373047	154.312714
1961.833984	193.257553
1960.292969	152.626083
1958.753906	167.205093
1957.212891	178.532104
1955.671875	167.136856
1954.130859	155.746246
1952.589844	178.422821
1951.048828	162.169464
1949.505859	184.835449
1947.964844	165.345322
1946.421875	162.070160
1944.878906	175.000046
1943.335938	149.043671
1941.792969	123.097893
1940.248047	166.795959
1938.705078	187.809509
1937.160156	140.828369
1935.615234	135.944443
1934.070313	163.423615
1932.525391	142.359802
1930.978516	152.035080
1929.433594	156.855209
1927.886719	172.990494
1926.339844	203.666794
1924.792969	150.294769
1923.246094	200.352066
1921.699219	180.926163
1920.150391	150.202621
1918.601563	213.147217
1917.052734	182.429626
1915.503906	169.479599
1913.955078	140.397232
1912.406250	193.611755
1910.855469	150.018417
1909.306641	148.374969
1907.755859	166.081467
1906.205078	166.047485
1904.654297	169.237091
1903.101563	183.705521
1901.550781	167.556717
1899.998047	162.690048
1898.447266	146.552124
1896.894531	172.284256
1895.339844	196.396042
1893.787109	168.994781
1892.234375	189.879059
1890.679688	152.837433
1889.125000	139.938263
1887.570313	138.301453
1886.015625	147.920090
1884.460938	199.329712
1882.906250	162.324020
1881.349609	168.718124
1879.792969	160.651016
1878.236328	178.286087
1876.679688	158.979340
1875.123047	158.946762
1873.566406	154.098602
1872.007813	157.276764
1870.449219	141.199158
1868.890625	141.170227
1867.332031	195.673141
1865.773438	179.597534
1864.214844	166.734955
1862.654297	152.274734
1861.093750	166.666580
1859.533203	136.189941
1857.972656	148.977264
1856.412109	171.368790
1854.851563	136.106171
1853.289063	190.509552
1851.728516	128.047379
1850.166016	136.022415
1848.603516	175.992889
1847.039063	180.755600
1845.476563	156.729324
1843.914063	129.514999
1842.349609	161.460861
1840.785156	134.256729
1839.220703	199.745773
1837.656250	145.385071
1836.091797	193.274521
1834.525391	169.280106
1832.958984	134.118958
1831.392578	148.458359
1829.826172	167.579849
1828.259766	161.162735
1826.693359	135.604156
1825.125000	177.046692
1823.558594	135.548447
1821.990234	186.540100
1820.421875	189.689835
1818.853516	152.995651
1817.285156	210.325790
1815.714844	151.339722
1814.144531	210.239349
1812.576172	171.978653
1811.005859	146.470215
1809.433594	184.641861
1807.863281	149.592819
1806.292969	213.205490
1804.720703	222.706192
1803.148438	174.947449
1801.576172	154.240112
1800.003906	160.567505
1798.431641	146.229416
1796.857422	185.927414
1795.285156	195.421936
1793.710938	157.258469
1792.136719	128.639542
1790.562500	163.545013
1788.986328	153.986420
1787.412109	179.349319
1785.835938	188.833420
1784.259766	168.169937
1782.683594	198.272766
1781.107422	180.787537
1779.531250	147.454208
1777.955078	171.201874
1776.376953	128.374969
1774.798828	179.054123
1773.220703	142.580093
1771.642578	137.799042
1770.064453	172.609207
1768.484375	148.824982
1766.906250	131.382217
1765.326172	147.181061
1763.746094	189.871918
1762.166016	158.193985
1760.583984	207.191422
1759.003906	153.384918
1757.421875	169.162918
1755.841797	140.676605
1754.259766	109.041397
1752.675781	180.118210
1751.093750	202.196289
1749.511719	116.870621
1747.927734	164.216736
1746.343750	168.918900
1744.759766	181.510910
1743.175781	172.005280
1741.591797	173.547501
1740.005859	167.202179
1738.421875	132.472504
1736.835938	163.979736
1735.250000	203.355957
1733.664063	140.270889
1732.076172	174.908493
1730.490234	100.827316
1728.902344	146.484451
1727.316406	140.155106
1725.728516	174.764099
1724.138672	157.412628
1722.550781	188.856140
1720.962891	157.347610
1719.373047	155.741959
1717.783203	144.700012
1716.193359	193.417664
1714.603516	165.078537
1713.013672	155.613312
1711.421875	139.865891
1709.830078	141.408203
1708.240234	139.808090
1706.648438	153.914185
1705.054688	179.006012
1703.462891	182.108826
1701.871094	175.792862
1700.277344	141.232925
1698.683594	138.065857
1697.089844	122.351250
1695.496094	196.035172
1693.902344	194.426682
1692.306641	125.410629
1690.710938	122.250069
1689.117188	172.368286
1687.521484	153.532700
1685.923828	173.863312
1684.328125	150.337158
1682.730469	112.729538
1681.134766	136.186661
1679.537109	150.243851
1677.939453	147.083313
1676.341797	158.003616
1674.742188	120.433266
1673.144531	153.246979
1671.544922	151.651825
1669.945313	148.494232
1668.345703	143.775162
1666.746094	159.369888
1665.144531	153.088379
1663.544922	129.629623
1661.943359	135.848694
1660.341797	224.806427
1658.740234	160.765732
1657.138672	174.777008
1655.535156	180.981537
1653.933594	137.267883
1652.330078	141.918045
1650.726563	143.447861
1649.123047	154.330368
1647.519531	155.856949
1645.914063	132.450943
1644.310547	135.539337
1642.705078	186.912033
1641.099609	126.139465
1639.494141	154.138489
1637.888672	158.776413
1636.281250	160.299789
1634.675781	147.818649
1633.068359	124.453041
1631.460938	171.087433
1629.853516	217.702469
1628.244141	158.578888
1626.636719	105.697319
1625.027344	191.148132
1623.417969	136.727997
1621.808594	135.146210
1620.199219	172.392136
1618.589844	136.642868
1616.978516	130.404755
1615.369141	122.617104
1613.757813	156.731094
1612.146484	128.772064
1610.535156	189.240112
1608.921875	128.718582
1607.310547	148.848404
1605.697266	176.720764
1604.083984	179.783768
1602.470703	103.819054
1600.857422	179.709076
1599.242188	179.671722
1597.628906	154.857239
1596.013672	131.601288
1594.398438	133.121872
1592.783203	156.308304
1591.167969	109.857246
1589.550781	117.569229
1587.935547	125.277992
1586.318359	204.114273
1584.701172	166.967865
1583.083984	146.839340
1581.466797	194.714828
1579.847656	163.773636
1578.230469	163.739563
1576.611328	163.705505
1574.992188	166.759583
1573.373047	137.393661
1571.751953	134.278214
1570.132813	124.991631
1568.511719	160.449677
1566.890625	151.161499
1565.269531	171.177902
1563.648438	174.225906
1562.027344	195.770660
1560.404297	175.694550
1558.783203	163.331100
1557.160156	161.756546
1555.537109	164.803299
1553.912109	126.271545
1552.289063	150.878464
1550.664063	193.946182
1549.041016	146.198807
1547.416016	181.556473
1545.791016	113.833725
1544.164063	132.265686
1542.539063	143.001678
1540.912109	170.643860
1539.287109	155.238174
1537.660156	144.448975
1536.033203	144.418869
1534.404297	135.172455
1532.777344	159.715958
1531.148438	173.501343
1529.519531	165.789719
1527.890625	151.942215
1526.261719	144.238281
1524.632813	176.424911
1523.001953	139.576675
1521.373047	133.413605
1519.742188	131.852600
1518.111328	164.014938
1516.478516	151.720474
1514.847656	154.753235
1513.214844	160.848495
1511.583984	145.499222
1509.951172	151.593857
1508.318359	157.685928
1506.683594	203.571365
1505.050781	168.332138
1503.416016	128.517700
1501.783203	163.672882
1500.148438	155.992035
1498.511719	154.430450
1496.876953	175.799911
1495.242188	117.684921
1493.605469	154.333679
1491.968750	158.884659
1490.332031	187.872391
1488.695313	114.532402
1487.058594	160.311859
1485.419922	154.172501
1483.781250	154.140289
1482.142578	181.572861
1480.503906	155.601349
1478.865234	134.216232
1477.226563	158.586029
1475.585938	121.963745
1473.945313	173.761993
1472.304688	192.012558
1470.664063	184.354446
1469.023438	152.327179
1467.380859	161.433029
1465.740234	165.967163
1464.097656	159.843185
1462.455078	126.325790
1460.812500	182.601486
1459.167969	123.230202
1457.525391	150.583176
1455.880859	150.551651
1454.236328	161.162979
1452.591797	129.207413
1450.947266	130.700134
1449.302734	151.945068
1447.656250	126.088005
1446.009766	153.400269
1444.363281	159.442123
1442.716797	116.899734
1441.070313	159.375336
1439.421875	168.447205
1437.775391	206.342529
1436.126953	153.207565
1434.478516	174.407700
1432.830078	136.464386
1431.179688	157.659134
1429.531250	162.173004
1427.880859	121.225426
1426.230469	154.530014
1424.580078	162.071030
1422.929688	175.666336
1421.279297	134.750229
1419.626953	151.373001
1417.974609	146.801025
1416.322266	136.178574
1414.669922	155.816116
1413.017578	151.246048
1411.363281	149.702179
1409.710938	185.954605
1408.056641	146.616348
1406.402344	173.787048
1404.748047	122.380836
1403.091797	158.608536
1401.437500	155.554764
1399.781250	194.780121
1398.125000	135.864578
1396.468750	172.059006
1394.812500	175.040833
1393.154297	171.986771
1391.498047	176.475677
1389.839844	150.802231
1388.181641	141.724335
1386.523438	189.931000
1384.865234	132.622360
1383.205078	162.729614
1381.544922	128.047333
1379.884766	146.093903
1378.224609	161.121262
1376.564453	130.977600
1374.904297	129.444901
1373.242188	139.951706
1371.580078	144.435913
1369.919922	144.405548
1368.255859	150.390823
1366.593750	159.380753
1364.931641	154.837418
1363.267578	153.301895
1361.603516	118.708847
1359.939453	132.204834
1358.275391	144.193115
1356.611328	154.674652
1354.945313	129.118668
1353.279297	127.590431
1351.613281	165.082291
1349.947266	144.041504
1348.281250	135.010483
1346.615234	142.481079
1344.947266	115.460358
1343.279297	172.404495
1341.611328	155.880814
1339.943359	136.366989
1338.275391	146.825836
1336.605469	142.301208
1334.935547	143.768829
1333.267578	149.727661
1331.597656	95.805519
1329.925781	100.275276
1328.255859	130.180771
1326.583984	169.049744
1324.912109	107.690414
1323.240234	131.593887
1321.568359	119.605598
1319.896484	136.022690
1318.224609	156.916183
1316.550781	200.212738
1314.876953	170.294327
1313.203125	149.349503
1311.529297	162.756638
1309.853516	128.386414
1308.179688	105.971085
1306.503906	159.669220
1304.828125	159.635559
1303.152344	161.093491
1301.474609	177.463715
1299.798828	105.859375
1298.121094	125.215660
1296.443359	162.447937
1294.765625	146.023300
1293.087891	98.321465
1291.410156	128.088806
1289.730469	166.778137
1288.050781	139.944962
1286.371094	139.915421
1284.691406	145.838470
1283.011719	154.734680
1281.332031	142.801849
1279.650391	150.207718
1277.968750	169.505585
1276.287109	157.577164
1274.605469	138.222473
1272.921875	154.538712
1271.240234	118.850815
1269.556641	172.297272
1267.873047	130.680664
1266.189453	164.800995
1264.505859	187.031876
1262.820313	111.304970
1261.134766	137.988983
1259.451172	151.310776
1257.765625	137.930664
1256.078125	121.590569
1254.392578	173.452301
1252.705078	139.325378
1251.019531	145.223389
1249.332031	167.416046
1247.642578	148.124466
1245.955078	179.192688
1244.267578	145.100571
1242.578125	168.754745
1240.888672	128.759262
1239.199219	130.211700
1237.509766	155.333359
1235.818359	919.970520
1234.128906	8717.167969
1232.437500	206.979675
1230.746094	141.898880
1229.054688	168.469238
1227.363281	138.883820
1225.669922	156.580505
1223.976563	168.362244
1222.283203	152.084549
1220.589844	134.337509
1218.896484	157.923828
1217.203125	126.902550
1215.507813	138.678055
1213.812500	153.398529
1212.117188	145.992661
1210.421875	171.025864
1208.726563	176.885818
1207.029297	140.004929
1205.332031	135.554977
1203.636719	151.730469
1201.937500	108.987129
1200.240234	161.973557
1198.542969	128.079193
1196.843750	119.220863
1195.144531	160.398987
1193.445313	142.710114
1191.746094	123.557800
1190.046875	97.060539
1188.345703	114.683578
1186.644531	130.829147
1184.943359	148.437531
1183.242188	168.977158
1181.541016	138.091156
1179.837891	170.374191
1178.136719	157.122147
1176.433594	121.853928
1174.730469	149.716415
1173.027344	148.217133
1171.322266	202.471512
1169.619141	167.223557
1167.914063	155.455551
1166.208984	129.030029
1164.503906	111.411362
1162.796875	175.875305
1161.091797	124.551880
1159.384766	127.455429
1157.677734	155.257538
1155.970703	150.831406
1154.263672	165.440063
1152.554688	143.448502
1150.847656	137.564224
1149.138672	175.576569
1147.429688	143.357056
1145.720703	185.739548
1144.009766	115.514206
1142.300781	162.270264
1140.589844	111.080338
1138.878906	178.275253
1137.167969	153.400986
1135.455078	167.974869
1133.744141	150.415054
1132.031250	169.363449
1130.318359	160.569107
1128.605469	141.562622
1126.892578	154.664383
1125.179688	144.419968
1123.464844	132.721405
1121.750000	141.442169
1120.035156	125.375641
1118.320313	160.330048
1116.605469	147.180801
1114.888672	155.891022
1113.171875	139.835052
1111.455078	160.193542
1109.738281	139.775497
1108.021484	145.568466
1106.302734	168.823456
1104.585938	98.944397
1102.867188	144.020706
1101.148438	158.534470
1099.429688	168.679642
1097.708984	111.944519
1095.990234	158.433151
1094.269531	175.837845
1092.548828	142.383774
1090.828125	159.784454
1089.105469	139.418518
1087.384766	152.456497
1085.662109	152.423981
1083.939453	132.072617
1082.216797	168.320404
1080.492188	163.932312
1078.769531	129.087296
1077.044922	191.414474
1075.320313	168.176834
1073.595703	147.848083
1071.871094	123.180450
1070.146484	159.375977
1068.419922	179.621857
1066.693359	154.963196
1064.966797	131.763000
1063.240234	136.077789
1061.513672	147.627350
1059.785156	170.748123
1058.056641	122.970268
1056.328125	128.729614
1054.599609	131.594299
1052.871094	141.686676
1051.140625	166.229462
1049.412109	118.503517
1047.681641	166.158447
1045.951172	147.343842
1044.218750	145.868118
1042.488281	122.734062
1040.755859	166.016479
1039.023438	112.578423
1037.291016	125.541397
1035.558594	141.384216
1033.826172	152.893097
1032.091797	173.049530
1030.357422	151.385956
1028.623047	115.317024
1026.888672	149.880066
1025.154297	187.310028
1023.417969	159.899734
1021.681641	142.582779
1019.945313	106.554222
1018.208984	132.444473
1016.472656	166.959488
1014.734375	139.582794
1012.998047	152.501144
1011.259766	143.838211
1009.521484	148.121643
1007.783203	185.471863
1006.042969	188.307083
1004.302734	156.649445
1002.564453	152.305374
1000.824219	137.907410
999.082031	147.931473
997.341797	136.412430
995.599609	143.561279
993.859375	188.024994
992.117188	167.894745
990.373047	137.730286
988.630859	98.972435
986.886719	164.918716
985.144531	140.509308
983.400391	176.315720
981.656250	171.978470
979.910156	163.344528
978.166016	169.039673
976.419922	196.215851
974.673828	176.126831
972.927734	201.858200
971.181641	157.444260
969.433594	168.858536
967.687500	165.960922
965.939453	148.760635
964.191406	140.148224
962.441406	140.118149
960.693359	171.536438
958.943359	178.645447
957.195313	160.031982
955.445313	158.569092
953.693359	195.669388
951.943359	157.073090
950.191406	182.736725
948.441406	148.441711
946.689453	158.398972
944.935547	175.485489
943.183594	166.889374
941.431641	149.740356
939.677734	162.540329
937.923828	155.377991
936.169922	158.194977
934.414063	180.958969
932.660156	193.741196
930.904297	182.305481
929.148438	183.690262
927.392578	176.532532
925.636719	204.961472
923.878906	182.148819
922.123047	147.964096
920.365234	149.354721
918.607422	169.232285
916.849609	200.475815
915.089844	187.639130
913.330078	166.280731
911.572266	160.561386
909.812500	170.470993
908.050781	195.999466
906.291016	204.477188
904.529297	176.039703
902.767578	180.259933
901.005859	146.163605
899.244141	187.276154
897.482422	157.448318
895.718750	178.686661
893.957031	175.812500
892.193359	180.027267
890.427734	138.888779
888.664063	157.278931
886.898438	191.243988
885.134766	181.288589
883.369141	192.577637
881.603516	181.210510
879.835938	200.987106
878.070313	171.226761
876.302734	120.257347
874.535156	203.686203
872.767578	176.772842
871.000000	179.562500
869.230469	147.011612
867.460938	190.791260
865.693359	162.490845
863.921875	96.060837
862.152344	125.699570
860.382813	158.149628
858.611328	166.585999
856.839844	152.435654
855.068359	136.880280
853.296875	158.013245
851.523438	176.316025
849.751953	156.534851
847.978516	159.320923
846.205078	180.430786
844.431641	160.661484
842.656250	132.446671
840.880859	147.913818
839.107422	128.164307
837.332031	173.195694
835.554688	150.633636
833.779297	171.713425
832.001953	174.490723
830.226563	119.584747
828.447266	160.349609
826.669922	125.158188
824.892578	133.566956
823.113281	177.113708
821.333984	153.184311
819.554688	112.404564
817.775391	105.356506
815.996094	157.298386
814.214844	140.414642
812.435547	165.653473
810.654297	134.739792
808.871094	141.726852
807.089844	155.725540
805.306641	176.731308
803.525391	168.279144
801.742188	133.192184
799.958984	199.044205
798.173828	148.550156
796.390625	196.155884
794.605469	119.068886
792.820313	151.254791
791.035156	186.227188
789.248047	165.188370
787.462891	132.961853
785.675781	156.721100
783.888672	149.692230
782.101563	100.705673
780.314453	190.180664
778.525391	144.002701
776.736328	177.518280
774.947266	134.157990
773.158203	149.497879
771.369141	124.321777
769.578125	164.795425
767.789063	135.438080
765.998047	166.120010
764.207031	140.962067
762.414063	133.954727
760.623047	154.851578
758.830078	177.134140
757.037109	118.528656
755.244141	147.780167
753.451172	167.262039
751.656250	146.322556
749.863281	190.874710
748.068359	149.045013
746.271484	140.656845
744.476563	142.018677
742.681641	203.237564
740.884766	115.514099
739.087891	121.054787
737.291016	180.847214
735.494141	190.543808
733.695313	159.910828
731.896484	134.852036
730.097656	132.042923
728.298828	177.871857
726.500000	155.604095
724.701172	152.792282
722.900391	115.263695
721.099609	130.511261
719.298828	181.843231
717.496094	165.149963
715.695313	145.688919
713.892578	127.623520
712.089844	123.435066
710.287109	134.501129
708.484375	144.176071
706.679688	131.670685
704.876953	138.570602
703.072266	160.706985
701.267578	155.131638
699.460938	168.945953
697.656250	131.527679
695.849609	168.872528
694.042969	146.693405
692.236328	106.537140
690.429688	164.612518
688.621094	149.363739
686.812500	153.479355
685.005859	118.886070
683.195313	142.355835
681.386719	102.252823
679.578125	153.345871
677.767578	128.451019
675.957031	136.708435
674.146484	172.574097
672.333984	120.085426
670.523438	155.939087
668.710938	107.615936
666.898438	124.145210
665.085938	124.118187
663.273438	135.121490
661.458984	140.606033
659.644531	144.709976
657.830078	140.544800
656.015625	122.605522
654.201172	122.578812
652.384766	152.845901
650.570313	118.395348
648.753906	129.380676
646.935547	104.582855
645.119141	121.069550
643.300781	114.165718
641.484375	99.013733
639.666016	151.238007
637.847656	144.332092
636.027344	140.177750
634.208984	114.041336
632.388672	125.006012
630.568359	120.858574
628.748047	138.682434
626.925781	171.599243
625.105469	156.464371
623.283203	115.264389
621.460938	112.495453
619.636719	124.815277
617.814453	142.614899
615.990234	120.647820
614.167969	113.767990
612.343750	91.816772
610.517578	120.568840
608.693359	104.104904
606.867188	141.058731
605.041016	121.859093
603.214844	125.939201
601.388672	146.440781
599.562500	84.835007
597.734375	142.272797
595.906250	134.035461
594.078125	102.555756
592.250000	150.382248
590.419922	112.078636
588.591797	151.683044
586.761719	137.987747
584.931641	137.957596
583.099609	155.680481
581.269531	151.550491
579.437500	122.851913
577.605469	161.037292
575.773438	148.722260
573.941406	107.765961
572.107422	170.478470
570.273438	143.170593
568.439453	132.233429
566.605469	136.293304
564.771484	145.801941
562.935547	147.132370
561.101563	144.376099
559.265625	140.259293
557.427734	152.481583
555.591797	178.309952
553.753906	129.280441
551.917969	117.007202
550.080078	144.186600
548.240234	107.436302
546.402344	138.684860
544.562500	118.264122
542.724609	110.083862
540.884766	131.799942
539.042969	111.394104
537.203125	124.951378
535.361328	119.492523
533.519531	143.902634
531.677734	127.583817
529.835938	131.626785
527.994141	153.304810
526.150391	153.271210
524.306641	165.442383
522.462891	120.665123
520.619141	147.748474
518.773438	123.322601
516.927734	143.619003
515.082031	130.041519
513.236328	131.367294
511.390625	136.754501
509.542969	154.322708
507.697266	155.642273
505.849609	147.489441
504.000000	155.573975
502.152344	151.482285
500.302734	148.744598
498.455078	181.158188
496.605469	136.514633
494.753906	117.566002
492.904297	132.401596
491.052734	149.932144
489.203125	149.899231
487.351563	106.661606
485.498047	141.734299
483.646484	147.101379
481.792969	151.116852
479.939453	165.922226
478.085938	137.563812
476.232422	124.049904
474.376953	133.459152
472.523438	144.212036
470.667969	172.477417
468.812500	136.065552
466.955078	121.219879
465.099609	144.085281
463.242188	135.975830
461.384766	150.751923
459.527344	138.607452
457.667969	170.866745
455.810547	153.342728
453.951172	107.585258
452.091797	130.418427
450.232422	130.389740
448.371094	135.736771
446.511719	157.205032
444.650391	111.496971
442.789063	149.077591
440.927734	142.331055
439.064453	135.587479
437.201172	166.427185
435.337891	163.706833
433.474609	110.008240
431.611328	152.904602
429.748047	150.188995
427.882813	151.496597
426.017578	168.888199
424.152344	142.049255
422.285156	159.435257
420.419922	107.159752
418.552734	164.721817
416.685547	125.857231
414.818359	116.459213
412.949219	155.244736
411.082031	149.858429
409.212891	167.215836
407.343750	123.043732
405.472656	121.679466
403.603516	204.536850
401.732422	156.376038
399.861328	133.625259
397.990234	128.251968
396.119141	156.272598
394.246094	153.567398
392.375000	149.528290
390.501953	146.825745
388.628906	125.441589
386.753906	133.419052
384.880859	189.413239
383.005859	160.032196
381.130859	161.330185
379.253906	153.296494
377.378906	161.258957
375.501953	153.228821
373.626953	181.169708
371.748047	190.452560
369.871094	178.426620
367.994141	155.755997
366.115234	169.031128
364.236328	165.001816
362.357422	160.974258
360.478516	180.889771
358.597656	175.530685
356.716797	152.890671
354.835938	167.477982
352.955078	183.387711
351.074219	174.046951
349.191406	144.785690
347.308594	164.673904
345.425781	171.276108
343.542969	160.618805
341.658203	164.564682
339.775391	155.240402
337.890625	184.390106
336.005859	135.277924
334.119141	184.308533
332.234375	188.244766
330.347656	177.600113
328.460938	160.334763
326.574219	176.196732
324.685547	164.237289
322.798828	172.146133
320.910156	189.318832
319.021484	160.157394
317.132813	185.265045
315.242188	187.870087
313.351563	178.569321
311.460938	191.754211
309.570313	169.235184
307.679688	186.381836
305.787109	183.697418
303.896484	136.090958
302.003906	182.295044
300.111328	236.402771
298.216797	194.097809
296.322266	190.094482
294.429688	147.818497
292.535156	158.341843
290.638672	178.095093
288.744141	163.547363
286.847656	159.555191
284.951172	188.523407
283.054688	180.573273
281.158203	141.000412
279.259766	155.461288
277.361328	183.087494
275.462891	163.293610
273.564453	163.257385
271.666016	192.179749
269.765625	143.444824
267.865234	157.885864
265.964844	118.388107
264.064453	147.294724
262.162109	193.281403
260.261719	170.891190
258.359375	186.624313
256.457031	155.047729
254.552734	149.758606
252.650391	161.545776
250.746094	120.804146
248.841797	128.654083
246.937500	190.313248
245.031250	164.026703
243.126953	170.549866
241.220703	149.525864
239.314453	139.001923
237.406250	171.747223
235.500000	165.155258
233.591797	155.945297
231.683594	161.151321
229.775391	144.087021
227.865234	171.556381
225.957031	142.713638
224.046875	162.317032
222.136719	162.280930
220.226563	163.553253
218.314453	189.679565
216.402344	159.556946
214.490234	162.136551
212.578125	176.480362
210.666016	133.311035
208.751953	158.108292
206.839844	165.911423
204.925781	173.711090
203.009766	144.944641
201.095703	180.161331
