#Wave		#Intensity
4001.644531	75.908714
4000.500000	-31.060656
3999.354492	-36.117661
3998.209961	-60.839561
3997.064453	34.476345
3995.918945	-5.559268
3994.772461	-84.869156
3993.626953	86.695137
3992.480469	72.792503
3991.333984	41.432106
3990.187500	31.867380
3989.040039	4.851521
3987.893555	-4.738813
3986.746094	16.164528
3985.598633	-19.602282
3984.451172	47.003246
3983.302734	-171.728394
3982.154297	1.540463
3981.006836	-32.092155
3979.857422	23.514853
3978.708984	107.373001
3977.560547	145.489792
3976.411133	37.821896
3975.261719	95.478569
3974.112305	-23.049675
3972.961914	97.615654
3971.811523	53.006977
3970.662109	47.517132
3969.511719	5.071246
3968.360352	106.018913
3967.209961	63.542309
3966.058594	129.656799
3964.907227	41.557034
3963.755859	-16.133675
3962.604492	-45.602291
3961.452148	72.500229
3960.299805	-65.500305
3959.147461	0.460360
3957.995117	22.998230
3956.841797	71.535301
3955.689453	91.848557
3954.536133	77.452339
3953.382813	15.359801
3952.228516	0.949428
3951.075195	110.024940
3949.920898	21.914764
3948.766602	133.078903
3947.612305	14.645840
3946.458008	58.618790
3945.302734	126.371025
3944.147461	23.103832
3942.992188	12.904172
3941.836914	180.095840
3940.680664	9.770308
3939.525391	-30.749836
3938.369141	88.737579
3937.211914	134.661530
3936.055664	78.960876
3934.898438	-76.145172
3933.742188	-49.713787
3932.584961	0.455360
3931.426758	-16.366224
3930.269531	148.198486
3929.111328	23.367775
3927.953125	-23.719831
3926.794922	-3.899475
3925.636719	69.845276
3924.477539	128.444809
3923.319336	81.307350
3922.160156	159.261368
3921.000000	-40.993629
3919.840820	90.820267
3918.680664	160.060272
3917.520508	71.934624
3916.360352	128.192398
3915.200195	109.012161
3914.040039	158.749435
3912.878906	150.307907
3911.717773	-6.712781
3910.556641	14.986510
3909.394531	90.472015
3908.233398	148.698181
3907.071289	39.066898
3905.909180	90.797752
3904.746094	-3.756465
3903.583984	4.925707
3902.420898	24.340290
3901.257813	35.134655
3900.094727	33.014946
3898.931641	-9.945265
3897.767578	131.857239
3896.603516	-48.605423
3895.439453	37.285503
3894.275391	80.186348
3893.111328	73.680710
3891.946289	52.138817
3890.781250	172.227448
3889.616211	2.599785
3888.451172	92.591843
3887.285156	2.372648
3886.119141	118.037254
3884.953125	-4.341494
3883.787109	25.508957
3882.620117	102.486595
3881.454102	200.850159
3880.287109	-17.917725
3879.120117	232.491211
3877.952148	-148.993835
3876.785156	39.223591
3875.617188	28.258623
3874.449219	102.903198
3873.281250	153.966751
3872.112305	145.087631
3870.944336	72.020157
3869.775391	9.662040
3868.606445	-1.361948
3867.436523	36.782074
3866.267578	-4.195449
3865.097656	29.635838
3863.927734	108.317490
3862.757813	-16.011240
3861.587891	120.300873
3860.416992	145.493179
3859.246094	21.190758
3858.075195	110.416420
3856.904297	99.274025
3855.732422	154.282898
3854.560547	57.763008
3853.388672	31.668301
3852.216797	26.901714
3851.044922	158.610565
3849.872070	0.283129
3848.699219	59.445225
3847.526367	122.837433
3846.353516	47.680309
3845.179688	149.380554
3844.005859	-30.155348
3842.832031	24.644461
3841.658203	-10.022404
3840.484375	-17.009356
3839.309570	35.597836
3838.134766	-5.467418
3836.959961	36.458561
3835.785156	91.123672
3834.609375	71.311508
3833.434570	-52.709854
3832.258789	18.922056
3831.082031	-30.657429
3829.906250	-75.977051
3828.729492	50.843197
3827.552734	-26.364086
3826.375977	55.770836
3825.199219	-4.436024
3824.021484	45.793480
3822.844727	108.734169
3821.666992	-55.490162
3820.489258	35.018578
3819.310547	142.460373
3818.131836	-74.743958
3816.954102	9.328592
3815.774414	93.361496
3814.595703	98.900986
3813.416992	42.950737
3812.237305	35.763439
3811.057617	39.166672
3809.877930	-120.587517
3808.697266	-47.264763
3807.516602	157.340454
3806.336914	31.512064
3805.155273	3.114991
3803.974609	19.175135
3802.792969	86.016518
3801.612305	-18.574804
3800.430664	58.812561
3799.248047	79.051506
3798.066406	56.978397
3796.883789	-110.993683
3795.701172	196.762253
3794.518555	7.675724
3793.335938	17.304705
3792.152344	94.536537
3790.968750	-69.095291
3789.785156	75.699608
3788.601563	-16.081362
3787.417969	94.856087
3786.233398	-15.905900
3785.048828	88.646172
3783.864258	60.211861
3782.678711	80.307137
3781.494141	-51.487354
3780.308594	-16.627079
3779.123047	68.821404
3777.937500	-8.100798
3776.750977	-78.676567
3775.564453	80.479942
3774.377930	-105.984451
3773.191406	74.174248
3772.004883	37.315266
3770.817383	-58.500076
3769.629883	3.627279
3768.442383	4.678623
3767.254883	-27.950201
3766.066406	44.643921
3764.878906	30.945803
3763.690430	-81.618057
3762.500977	180.215103
3761.312500	-54.303024
3760.123047	77.072876
3758.933594	38.135929
3757.744141	1.311025
3756.554688	-24.998182
3755.364258	5.419984
3754.173828	84.132584
3752.983398	-68.190132
3751.792969	37.794945
3750.602539	-38.896961
3749.411133	-63.092770
3748.219727	17.640076
3747.028320	39.593895
3745.835938	55.242790
3744.644531	47.813129
3743.452148	101.192963
3742.259766	-63.487137
3741.067383	-31.073532
3739.874023	49.527016
3738.680664	12.755610
3737.487305	-5.150111
3736.293945	56.541622
3735.100586	5.122884
3733.906250	-44.185905
3732.711914	120.047821
3731.517578	-151.126770
3730.323242	-5.772112
3729.127930	20.269226
3727.932617	77.676399
3726.737305	36.762234
3725.541992	77.413040
3724.345703	-38.753803
3723.150391	-2.288009
3721.954102	-105.860657
3720.757813	45.523327
3719.560547	13.006960
3718.364258	105.825447
3717.166992	27.364092
3715.969727	-15.574162
3714.771484	95.981567
3713.574219	19.649561
3712.375977	3.861491
3711.177734	102.829971
3709.979492	64.084625
3708.780273	167.174210
3707.582031	15.827584
3706.382813	-8.288458
3705.183594	-49.071655
3703.983398	49.791641
3702.784180	-7.657445
3701.583984	28.661930
3700.383789	87.879616
3699.182617	34.619080
3697.982422	4.282033
3696.781250	121.758896
3695.580078	78.928528
3694.378906	59.004627
3693.177734	20.363235
3691.975586	19.179333
3690.773438	113.666740
3689.571289	141.578461
3688.369141	-5.157702
3687.166016	180.742355
3685.962891	38.210949
3684.759766	70.273308
3683.556641	69.084763
3682.352539	5.584697
3681.149414	114.475098
3679.945313	177.646637
3678.740234	126.619637
3677.536133	233.353409
3676.331055	205.163666
3675.126953	129.266541
3673.920898	157.116806
3672.715820	124.812798
3671.510742	216.937698
3670.304688	136.953094
3669.098633	106.747147
3667.891602	163.596130
3666.685547	137.544052
3665.478516	113.574364
3664.271484	128.969482
3663.064453	18.036337
3661.857422	298.471527
3660.649414	166.850174
3659.441406	198.788437
3658.233398	201.746063
3657.025391	165.394501
3655.816406	174.566711
3654.607422	260.260162
3653.398438	271.483185
3652.189453	336.456818
3650.980469	277.386902
3649.770508	354.739716
3648.560547	301.891602
3647.350586	352.358734
3646.139648	382.154510
3644.929688	339.663879
3643.718750	406.620667
3642.507813	372.403137
3641.295898	224.684631
3640.084961	155.438950
3638.873047	327.611816
3637.661133	394.521912
3636.449219	343.852692
3635.236328	233.407074
3634.023438	345.661011
3632.810547	200.220993
3631.597656	458.765747
3630.384766	294.820770
3629.170898	283.386230
3627.957031	395.541107
3626.743164	487.063782
3625.529297	393.252106
3624.314453	439.459381
3623.099609	405.384644
3621.884766	400.134399
3620.669922	483.357605
3619.454102	367.023743
3618.239258	339.171509
3617.023438	479.943939
3615.806641	406.858643
3614.590820	477.687164
3613.374023	400.526733
3612.157227	426.133942
3610.940430	459.952209
3609.723633	485.546021
3608.505859	428.991791
3607.288086	421.738586
3606.070313	465.811340
3604.852539	380.570862
3603.633789	408.226471
3602.415039	382.533325
3601.196289	541.464600
3599.977539	472.696533
3598.758789	535.187744
3597.539063	548.457520
3596.319336	549.428467
3595.099609	630.326233
3593.878906	534.989502
3592.659180	529.829285
3591.438477	471.422485
3590.217773	533.861023
3588.996094	512.336731
3587.775391	449.885040
3586.553711	545.051086
3585.332031	539.920044
3584.109375	508.198822
3582.887695	515.358398
3581.665039	575.692017
3580.442383	499.011841
3579.219727	585.910645
3577.996094	713.660278
3576.773438	661.533569
3575.549805	625.776306
3574.325195	538.967163
3573.101563	633.969666
3571.876953	506.360229
3570.652344	556.426147
3569.427734	455.424744
3568.203125	629.984497
3566.977539	635.121826
3565.752930	689.225281
3564.526367	537.300293
3563.300781	736.204712
3562.075195	637.350525
3560.848633	546.692688
3559.622070	649.702576
3558.395508	650.787415
3557.167969	623.353333
3555.940430	697.786255
3554.712891	586.859558
3553.485352	767.168518
3552.257813	678.675537
3551.029297	665.534363
3549.800781	699.211914
3548.572266	732.881470
3547.343750	609.896667
3546.114258	676.124512
3544.884766	713.861572
3543.655273	741.423218
3542.425781	714.093140
3541.195313	711.167786
3539.965820	799.692078
3538.734375	630.163086
3537.503906	734.929932
3536.273438	841.693787
3535.041992	761.611450
3533.810547	797.284424
3532.579102	743.638550
3531.346680	797.576172
3530.115234	717.583069
3528.882813	763.401062
3527.650391	764.585266
3526.416992	808.359863
3525.184570	787.243286
3523.951172	942.498901
3522.717773	872.733459
3521.483398	849.605835
3520.250000	830.544128
3519.015625	866.185608
3517.781250	802.583496
3516.545898	945.543457
3515.311523	833.374084
3514.076172	864.961060
3512.840820	839.878235
3511.605469	843.136292
3510.369141	988.003296
3509.133789	981.130066
3507.897461	863.045044
3506.660156	908.775085
3505.423828	889.807861
3504.186523	939.567810
3502.949219	910.509399
3501.711914	871.365662
3500.474609	856.480652
3499.236328	1033.459106
3497.998047	1014.521606
3496.759766	904.752625
3495.521484	1061.454834
3494.282227	915.405151
3493.042969	1110.390747
3491.803711	1083.413818
3490.564453	985.862793
3489.324219	1102.098511
3488.084961	929.996155
3486.844727	981.706482
3485.603516	1029.372437
3484.363281	1197.922119
3483.122070	1074.301392
3481.880859	1158.193848
3480.639648	1105.120972
3479.397461	1110.463257
3478.156250	1031.259766
3476.914063	968.193176
3475.671875	1096.322754
3474.428711	1067.480835
3473.186523	1034.631226
3471.943359	1146.602051
3470.700195	1172.073242
3469.456055	1223.674805
3468.212891	1208.931274
3466.968750	1105.774780
3465.724609	1167.421387
3464.479492	1152.712524
3463.235352	1172.158447
3461.990234	1189.594116
3460.745117	1184.943237
3459.499023	1120.078491
3458.253906	1237.878296
3457.007813	1197.117432
3455.761719	1228.601074
3454.515625	1256.065796
3453.268555	1243.416138
3452.021484	1381.157349
3450.775391	1234.183105
3449.527344	1225.568481
3448.280273	1114.760254
3447.032227	1178.309937
3445.784180	1259.868896
3444.536133	1163.151611
3443.287109	1282.739380
3442.039063	1232.110962
3440.790039	1281.591431
3439.541016	1245.001465
3438.291016	1192.422974
3437.041992	1263.902832
3435.791992	1281.356567
3434.541992	1278.810181
3433.291016	1310.259766
3432.041016	1213.763428
3430.790039	1277.201538
3429.539063	1344.616943
3428.287109	1264.166748
3427.036133	1327.572998
3425.784180	1404.940430
3424.532227	1284.602905
3423.280273	1200.250610
3422.027344	1277.612183
3420.774414	1293.084229
3419.521484	1292.592651
3418.268555	1306.070068
3417.014648	1363.426758
3415.761719	1259.240723
3414.507813	1232.855957
3413.252930	1449.677246
3411.999023	1381.421509
3410.744141	1372.975220
3409.489258	1213.126099
3408.234375	1326.227661
3406.978516	1325.775879
3405.723633	1319.354858
3404.467773	1277.107910
3403.210938	1332.408691
3401.955078	1367.792847
3400.698242	1307.666870
3399.441406	1211.762085
3398.184570	1302.849609
3396.927734	1334.252441
3395.669922	1248.350098
3394.412109	1311.563843
3393.154297	1185.959229
3391.896484	1211.416382
3390.637695	1379.902832
3389.378906	1311.969482
3388.120117	1192.434082
3386.861328	1299.290771
3385.601563	1283.036255
3384.341797	1240.990112
3383.082031	1250.556152
3381.822266	1289.881958
3380.561523	1251.837524
3379.300781	1217.777832
3378.040039	1316.584717
3376.779297	1280.549927
3375.517578	1252.461914
3374.256836	1228.351074
3372.995117	1126.981567
3371.732422	1279.216919
3370.470703	1265.028442
3369.208008	1219.166870
3367.945313	1280.236572
3366.682617	1212.622192
3365.418945	1234.095703
3364.155273	1122.991699
3362.891602	1136.567749
3361.627930	1274.752686
3360.363281	1217.109497
3359.099609	1218.806885
3357.834961	1133.526733
3356.569336	1239.998901
3355.304688	1283.198730
3354.039063	1168.330078
3352.773438	1075.236572
3351.507813	1234.975342
3350.241211	1303.826538
3348.975586	1204.847290
3347.708984	1173.019043
3346.442383	1295.135254
3345.174805	1281.066040
3343.907227	1121.025635
3342.639648	1243.091675
3341.372070	1081.152710
3340.104492	1195.299194
3338.835938	1200.989990
3337.567383	1139.672852
3336.298828	1314.836548
3335.029297	1216.095825
3333.760742	1213.909912
3332.491211	1270.808716
3331.221680	1266.650146
3329.951172	1120.758911
3328.681641	1134.349609
3327.411133	1104.646606
3326.139648	1076.925171
3324.869141	1155.438965
3323.597656	1170.990967
3322.327148	1200.303589
3321.054688	1036.943481
3319.783203	1217.626587
3318.510742	1170.277954
3317.238281	1211.368042
3315.965820	1054.032715
3314.693359	1201.195190
3313.419922	1138.186035
3312.146484	1145.883179
3310.873047	1100.579590
3309.599609	1267.256470
3308.325195	1178.782715
3307.050781	1202.170288
3305.776367	1253.012573
3304.501953	1178.325439
3303.226563	1215.431885
3301.951172	1132.943604
3300.675781	1254.328125
3299.400391	1062.128540
3298.124023	1201.117920
3296.847656	1056.019165
3295.571289	1130.329468
3294.294922	1139.995239
3293.017578	1276.913940
3291.740234	1094.728149
3290.462891	1075.045532
3289.185547	1174.727173
3287.907227	1186.341064
3286.628906	1182.304688
3285.350586	1031.607544
3284.072266	1203.568604
3282.792969	1211.265015
3281.513672	1078.242554
3280.234375	1103.549072
3278.955078	1173.781738
3277.674805	1058.426758
3276.394531	1195.043335
3275.114258	1077.778687
3273.833984	1200.676880
3272.552734	1097.121216
3271.272461	1173.136719
3269.990234	1077.432861
3268.708984	1180.735840
3267.426758	1202.087646
3266.145508	1112.285522
3264.862305	1215.527100
3263.580078	1090.673218
3262.296875	1129.570313
3261.014648	1185.988525
3259.731445	1232.646973
3258.447266	1121.523560
3257.164063	1105.863037
3255.879883	1109.679077
3254.595703	1199.145142
3253.310547	1228.245117
3252.026367	1017.993591
3250.741211	1163.847290
3249.456055	1089.848389
3248.169922	1140.342285
3246.884766	1167.484497
3245.598633	1179.065186
3244.312500	1097.348022
3243.025391	1002.059937
3241.739258	1134.126099
3240.452148	1126.281494
3239.165039	1093.192505
3237.876953	1265.944824
3236.589844	1141.596436
3235.301758	1168.696655
3234.013672	1120.101196
3232.724609	1154.957642
3231.436523	1098.624023
3230.147461	1189.718384
3228.857422	1050.015869
3227.568359	1106.186279
3226.278320	1133.259644
3224.989258	1047.913208
3223.698242	1138.931763
3222.408203	1103.988525
3221.117188	1103.924194
3219.826172	1086.430420
3218.535156	1094.114014
3217.244141	1130.832031
3215.952148	1198.504028
3214.660156	977.819153
3213.368164	1124.818481
3212.076172	1084.127441
3210.783203	1194.304199
3209.490234	1101.407349
3208.197266	933.148499
3206.903320	962.108582
3205.610352	1006.517151
3204.316406	1058.637085
3203.022461	956.193970
3201.727539	1101.011108
3200.432617	1002.460754
3199.137695	1010.134766
3197.842773	988.850037
3196.547852	1139.337402
3195.251953	934.726990
3193.956055	936.618164
3192.660156	986.728149
3191.363281	1031.033691
3190.067383	1090.745361
3188.770508	1098.385376
3187.472656	973.035217
3186.175781	911.321655
3184.877930	980.641296
3183.580078	945.915955
3182.282227	1001.719238
3180.983398	976.629456
3179.684570	907.269897
3178.385742	839.860291
3177.086914	895.637451
3175.788086	809.013489
3174.488281	830.147583
3173.188477	814.729126
3171.887695	760.857727
3170.587891	881.958008
3169.287109	849.235718
3167.986328	849.196106
3166.685547	768.453796
3165.383789	806.848816
3164.082031	801.051392
3162.780273	825.979980
3161.478516	883.537354
3160.175781	781.744141
3158.873047	787.465881
3157.570313	931.343201
3156.267578	791.224182
3154.963867	745.147095
3153.660156	622.374878
3152.356445	865.872314
3151.052734	789.129761
3149.748047	599.331787
3148.443359	620.398132
3147.138672	603.135986
3145.833984	543.736206
3144.528320	767.807312
3143.222656	597.335388
3141.916992	635.603699
3140.610352	673.855957
3139.304688	723.573364
3137.998047	687.168762
3136.691406	679.471497
3135.383789	708.115540
3134.076172	591.414673
3132.768555	547.408447
3131.460938	696.481567
3130.153320	470.907501
3128.844727	503.376221
3127.536133	650.455017
3126.227539	495.686310
3124.917969	604.513062
3123.608398	530.000549
3122.298828	470.785553
3120.989258	457.397797
3119.678711	501.260132
3118.369141	560.365112
3117.057617	443.957336
3115.747070	480.161285
3114.436523	451.519257
3113.125000	388.571075
3111.813477	489.563263
3110.500977	443.778534
3109.189453	586.632813
3107.876953	405.592224
3106.564453	394.124695
3105.250977	418.839417
3103.937500	451.157196
3102.625000	470.135345
3101.310547	502.426086
3099.997070	380.580536
3098.682617	363.409302
3097.368164	492.695984
3096.053711	450.783600
3094.739258	437.403351
3093.423828	258.647766
3092.108398	389.745270
3090.792969	342.173706
3089.476563	387.708649
3088.160156	374.340546
3086.843750	245.131149
3085.527344	364.699585
3084.210938	265.909607
3082.893555	341.769012
3081.576172	305.637421
3080.257813	261.928345
3078.940430	352.911041
3077.622070	257.997650
3076.303711	274.990875
3074.984375	242.684372
3073.666016	176.269302
3072.346680	197.049850
3071.027344	265.186646
3069.707031	265.098816
3068.387695	229.022263
3067.067383	198.637573
3065.747070	262.923004
3064.425781	251.466446
3063.104492	166.203430
3061.783203	219.096085
3060.461914	207.644897
3059.140625	177.280991
3057.818359	197.984085
3056.496094	148.720718
3055.173828	216.672516
3053.850586	167.418304
3052.527344	165.419754
3051.204102	112.409286
3049.880859	178.414215
3048.556641	187.735748
3047.233398	121.524864
3045.909180	234.674011
3044.583984	283.605072
3043.259766	49.457973
3041.934570	247.446030
3040.608398	156.749619
3039.283203	249.020950
3037.957031	158.352173
3036.630859	156.319977
3035.304688	120.357727
3033.978516	195.590881
3032.651367	227.456863
3031.324219	27.604172
3029.997070	95.267647
3028.668945	209.977951
3027.341797	119.428375
3026.013672	141.849182
3024.684570	83.334618
3023.356445	132.088684
3022.027344	137.552612
3020.698242	133.606354
3019.368164	197.356247
3018.039063	39.222145
3016.708984	112.356926
3015.378906	136.595398
3014.047852	209.676208
3012.717773	177.518494
3011.386719	55.210918
3010.055664	122.620018
3008.723633	37.914860
3007.392578	94.030235
3006.060547	144.489838
3004.727539	84.213058
3003.395508	95.248497
3002.062500	44.375671
3000.729492	85.414040
2999.396484	28.929989
2998.062500	113.065712
2996.728516	163.427048
2995.394531	13.251306
2994.060547	116.065804
2992.725586	46.498810
2991.390625	119.293381
2990.055664	4.804738
2988.720703	32.639805
2987.384766	94.152664
2986.048828	20.895214
2984.712891	69.281281
2983.376953	78.359680
2982.040039	38.802345
2980.703125	122.674629
2979.366211	90.594452
2978.028320	13.660739
2976.690430	60.099739
2975.352539	117.727852
2974.014648	72.580475
2972.675781	57.331478
2971.336914	-2.734038
2969.998047	47.377327
2968.659180	28.396770
2967.319336	93.405869
2965.979492	76.281769
2964.639648	18.116024
2963.299805	60.693787
2961.958984	69.682793
2960.618164	76.799576
2959.277344	22.391048
2957.935547	-7.770317
2956.593750	75.747581
2955.251953	-43.849926
2953.910156	108.556046
2952.567383	-24.046473
2951.225586	-2.053475
2949.881836	3.172235
2948.539063	84.705124
2947.195313	8.021977
2945.852539	-111.429184
2944.507813	-29.933561
2943.164063	-34.027737
2941.819336	-2.793780
2940.474609	-55.237289
2939.129883	16.873421
2937.784180	38.775135
2936.439453	34.650772
2935.093750	88.113060
2933.747070	22.680542
2932.401367	35.262230
2931.054688	-19.003286
2929.708008	0.998534
2928.360352	-30.976749
2927.013672	-118.610184
2925.666016	5.276587
2924.318359	40.079857
2922.969727	4.396238
2921.621094	-29.423864
2920.272461	-20.598961
2918.923828	21.579205
2917.575195	17.410923
2916.225586	31.766966
2914.875977	-52.058647
2913.525391	54.893959
2912.175781	69.221390
2910.825195	-21.980091
2909.474609	14.558642
2908.123047	-4.435696
2906.772461	32.077122
2905.420898	103.717270
2904.069336	84.703827
2902.716797	-48.948414
2901.364258	22.653233
2900.011719	33.227272
2898.659180	-44.910378
2897.305664	-41.726143
2895.953125	-5.296688
2894.599609	21.879700
2893.245117	-15.587857
2891.891602	-16.121218
2890.537109	62.711971
2889.181641	-70.718903
2887.827148	-62.028564
2886.471680	-60.724854
2885.116211	-0.405038
2883.760742	-41.535427
2882.405273	140.431351
2881.048828	-48.184319
2879.692383	72.886536
2878.334961	-8.780080
2876.978516	-105.157227
2875.621094	23.208870
2874.263672	41.029068
2872.905273	-58.996601
2871.547852	25.093386
2870.189453	6.080912
2868.830078	79.076569
2867.471680	-111.043060
2866.112305	123.803452
2864.752930	-34.995777
2863.393555	85.738960
2862.033203	-102.412712
2860.672852	-1.937650
2859.312500	6.614347
2857.952148	-50.981327
2856.590820	7.164034
2855.229492	59.773056
2853.868164	-71.258507
2852.505859	155.737595
2851.144531	-92.738457
2849.782227	68.101982
2848.418945	-42.664204
2847.056641	-96.526054
2845.693359	25.693964
2844.330078	23.173567
2842.965820	73.815598
2841.602539	8.958425
2840.238281	-10.063219
2838.874023	3.898372
2837.508789	-26.114569
2836.143555	-114.728500
2834.778320	40.231392
2833.413086	19.370090
2832.046875	22.308434
2830.681641	-16.850513
2829.314453	15.360964
2827.948242	20.114815
2826.581055	-4.401267
2825.214844	13.146770
2823.846680	-35.134968
2822.479492	51.865685
2821.111328	-27.482203
2819.743164	136.218140
2818.375000	80.625671
2817.005859	-79.060455
2815.636719	24.277983
2814.267578	131.223755
2812.898438	24.546158
2811.528320	-125.895981
2810.158203	110.559753
2808.788086	44.072552
2807.416992	19.559338
2806.046875	100.824211
2804.675781	69.007912
2803.303711	46.314529
2801.932617	87.416840
2800.560547	42.853500
2799.188477	91.219574
2797.815430	19.341635
2796.443359	67.684952
2795.070313	41.351650
2793.696289	13.204030
2792.323242	70.608253
2790.949219	4.242851
2789.575195	32.507576
2788.201172	18.919281
2786.826172	34.431232
2785.451172	-6.435457
2784.076172	25.428589
2782.701172	53.641056
2781.325195	0.061203
2779.949219	2.822454
2778.573242	-10.770496
2777.196289	17.410158
2775.819336	-21.610548
2774.442383	119.112946
2773.065430	18.365324
2771.687500	-15.200727
2770.309570	-30.613379
2768.931641	-91.375801
2767.553711	118.123833
2766.174805	51.907837
2764.795898	-43.294384
2763.416992	-17.016277
2762.037109	1.998113
2760.657227	-42.416580
2759.277344	12.818751
2757.897461	-78.680649
2756.516602	32.668789
2755.135742	15.424131
2753.754883	-14.488839
2752.373047	75.052750
2750.991211	-7.342756
2749.609375	-39.055000
2748.227539	-68.950424
2746.844727	34.982506
2745.461914	140.678802
2744.079102	-70.014381
2742.696289	-72.786469
2741.312500	20.207802
2739.928711	-13.301883
2738.544922	34.479656
2737.160156	-33.339878
2735.775391	57.751934
2734.390625	-55.183620
2733.005859	120.696732
2731.620117	20.416203
2730.234375	-121.324051
2728.848633	9.359038
2727.461914	78.669830
2726.076172	7.309722
2724.689453	76.585869
2723.301758	43.095448
2721.915039	-55.258244
2720.527344	62.622478
2719.138672	-32.102234
2717.750977	28.088863
2716.362305	-7.179714
2714.973633	45.773926
2713.584961	50.105549
2712.195313	-49.942417
2710.806641	24.566820
2709.416016	-25.077219
2708.026367	43.994404
2706.635742	-11.036451
2705.245117	-1.329677
2703.854492	-65.324966
2702.462891	25.249151
2701.072266	40.321682
2699.680664	-18.266846
2698.288086	48.884197
2696.896484	11.857165
2695.503906	64.605843
2694.110352	70.660751
2692.717773	-41.734375
2691.324219	84.546364
2689.930664	45.734463
2688.537109	67.914642
2687.142578	30.906673
2685.748047	-9.676594
2684.353516	-50.247505
2682.958984	32.850929
2681.563477	44.241199
2680.167969	0.088663
2678.771484	-110.320618
2677.375977	49.710037
2675.979492	0.199532
2674.583008	11.565421
2673.185547	-39.715809
2671.789063	9.221486
2670.391602	43.823437
2668.993164	31.903757
2667.595703	64.691879
2666.197266	-11.599730
2664.798828	24.750950
2663.400391	21.765162
2662.000977	84.890076
2660.601563	37.222717
2659.202148	11.004299
2657.801758	84.796974
2656.401367	-36.057594
2655.000977	87.690346
2653.600586	-20.631556
2652.199219	-9.360332
2650.797852	37.583481
2649.396484	13.157162
2647.995117	13.703486
2646.592773	-35.678299
2645.190430	82.523643
2643.787109	102.649040
2642.384766	26.538229
2640.981445	27.061563
2639.578125	41.830746
2638.173828	-37.797180
2636.769531	-5.223688
2635.365234	-122.202682
2633.960938	24.276585
2632.555664	31.893894
2631.150391	-67.243668
2629.745117	-16.928099
2628.339844	49.369663
2626.933594	51.626026
2625.527344	-8.342941
2624.121094	116.555786
2622.713867	44.150406
2621.306641	-45.996895
2619.899414	29.086042
2618.492188	59.736141
2617.083984	21.120462
2615.675781	65.954018
2614.266602	87.691963
2612.858398	-55.618237
2611.449219	-19.679083
2610.040039	-60.034588
2608.629883	-4.607786
2607.220703	-25.452990
2605.810547	-62.249779
2604.399414	23.264782
2602.989258	55.578144
2601.578125	-71.585480
2600.166992	33.354435
2598.754883	10.730929
2597.343750	-47.301773
2595.930664	11.528895
2594.518555	31.392504
2593.106445	33.547150
2591.693359	79.930351
2590.280273	64.376556
2588.866211	-0.696973
2587.452148	19.129164
2586.038086	61.926502
2584.624023	-93.266632
2583.208984	-0.989282
2581.794922	43.541969
2580.378906	-17.941650
2578.963867	79.552994
2577.547852	-87.871544
2576.131836	73.147766
2574.715820	-64.209641
2573.298828	6.728357
2571.881836	-0.000893
2570.464844	65.596260
2569.047852	28.866501
2567.629883	-48.411385
2566.211914	-30.458090
2564.793945	103.822578
2563.375000	0.128103
2561.956055	-31.287104
2560.537109	71.191948
2559.118164	-51.820740
2557.698242	15.394050
2556.278320	38.563385
2554.857422	42.355934
2553.437500	86.621857
2552.016602	69.280754
2550.595703	25.554346
2549.173828	-48.060108
2547.752930	-3.827901
2546.330078	45.656094
2544.908203	-3.320873
2543.485352	86.557503
2542.063477	7.712456
2540.639648	78.219749
2539.216797	-19.921669
2537.792969	20.701891
2536.369141	13.900299
2534.945313	35.183807
2533.520508	52.943943
2532.095703	-11.777487
2530.670898	28.783434
2529.245117	62.307526
2527.819336	22.161076
2526.393555	103.004234
2524.967773	94.410721
2523.541016	31.484941
2522.114258	7.129561
2520.687500	-13.716215
2519.260742	37.256443
2517.833008	-100.927658
2516.405273	91.853874
2514.976563	11.472033
2513.547852	132.388580
2512.119141	-42.468517
2510.690430	41.663437
2509.261719	138.001724
2507.832031	85.649734
2506.402344	105.000389
2504.971680	31.689564
2503.541016	113.953438
2502.110352	28.429468
2500.679688	58.241177
2499.248047	51.355221
2497.816406	180.684082
2496.384766	-39.246136
2494.953125	-12.953735
2493.520508	90.117767
2492.087891	77.975342
2490.655273	-5.696450
2489.221680	6.595644
2487.788086	45.037796
2486.354492	8.485712
2484.919922	172.416519
2483.485352	5.127004
2482.050781	1.699423
2480.616211	-15.668717
2479.180664	57.541939
2477.745117	-17.309809
2476.309570	64.569000
2474.873047	41.960648
2473.437500	97.679199
2472.000000	24.600090
2470.563477	1.999966
2469.125977	68.115273
2467.688477	33.332172
2466.250977	8.990987
2464.812500	33.329548
2463.374023	90.676895
2461.935547	45.472229
2460.497070	101.048058
2459.057617	54.112179
2457.618164	80.131088
2456.177734	59.253254
2454.738281	170.314774
2453.297852	-6.789521
2451.857422	15.731098
2450.416016	48.647156
2448.974609	123.175896
2447.533203	105.754562
2446.091797	155.958099
2444.649414	138.527237
2443.207031	62.168728
2441.764648	159.124023
2440.321289	70.654091
2438.877930	131.182999
2437.434570	150.118683
2435.990234	65.151581
2434.546875	40.804363
2433.101563	-32.001839
2431.657227	7.697092
2430.211914	220.386719
2428.766602	121.627090
2427.321289	60.949215
2425.875977	55.621872
2424.429688	166.116470
2422.983398	117.549698
2421.536133	98.373444
2420.089844	25.641691
2418.642578	53.120483
2417.194336	23.590811
2415.747070	83.855957
2414.298828	147.544250
2412.849609	207.749161
2411.401367	57.397068
2409.952148	19.243940
2408.502930	160.496368
2407.052734	136.123764
2405.603516	42.785896
2404.152344	46.018452
2402.703125	159.555328
2401.251953	66.251694
2399.800781	143.546661
2398.349609	12.377204
2396.898438	27.642250
2395.445313	75.609924
2393.994141	80.517128
2392.541016	-21.297644
2391.087891	79.981209
2389.634766	98.631004
2388.181641	100.066780
2386.728516	56.781689
2385.275391	128.712479
2383.820313	59.639931
2382.365234	43.871605
2380.910156	194.792023
2379.455078	41.545437
2378.000000	121.967789
2376.544922	13.438700
2375.089844	80.087311
2373.632813	79.750259
2372.175781	26.200480
2370.718750	111.665024
2369.261719	145.619202
2367.804688	49.188267
2366.347656	138.010620
2364.888672	60.468273
2363.429688	97.810287
2361.972656	49.435143
2360.513672	30.203789
2359.054688	100.065491
2357.593750	29.430061
2356.134766	90.689743
2354.673828	40.620468
2353.214844	67.603760
2351.753906	-8.125731
2350.292969	5.153266
2348.832031	88.567940
2347.369141	-0.823758
2345.908203	-33.746670
2344.445313	-29.047277
2342.984375	-39.739223
2341.521484	60.662285
2340.058594	-3.030848
2338.593750	90.475624
2337.130859	-106.445663
2335.667969	39.976353
2334.203125	-1.489734
2332.738281	-56.602303
2331.273438	-55.374794
2329.808594	92.600975
2328.343750	6.774957
2326.878906	-7.380463
2325.412109	-1.073293
2323.945313	-23.760843
2322.478516	37.086899
2321.011719	101.312943
2319.544922	112.681427
2318.078125	-24.183876
2316.611328	-40.061058
2315.142578	1.963158
2313.673828	1.397329
2312.205078	-75.780289
2310.736328	-134.211304
2309.267578	31.995377
2307.798828	-53.667091
2306.328125	-135.901688
2304.859375	21.683573
2303.388672	-142.160263
2301.917969	81.646942
2300.447266	-88.954147
2298.974609	-6.302286
2297.503906	-47.710732
2296.031250	-17.769590
2294.560547	66.499657
2293.087891	-88.680130
2291.615234	-16.328363
2290.142578	64.474136
2288.667969	53.602905
2287.195313	-40.399483
2285.720703	3.021043
2284.246094	-75.685646
2282.773438	96.574135
2281.296875	-22.819601
2279.822266	22.231138
2278.347656	26.588934
2276.871094	-43.607540
2275.396484	-35.863705
2273.919922	22.672749
2272.443359	-91.522385
2270.966797	38.086781
2269.488281	-32.076950
2268.011719	-63.297722
2266.533203	-58.987228
2265.056641	-54.682999
2263.578125	17.254993
2262.099609	36.743530
2260.619141	25.787163
2259.140625	-54.463100
2257.662109	2.182355
2256.181641	-27.364464
2254.701172	-53.528049
2253.220703	166.868103
2251.740234	47.800285
2250.259766	16.552439
2248.777344	-53.509380
2247.296875	-5.431059
2245.814453	29.122314
2244.332031	1.246813
2242.849609	-73.842484
2241.367188	73.646637
2239.884766	67.671944
2238.400391	46.522049
2236.917969	-100.999466
2235.433594	-0.824640
2233.949219	62.247635
2232.464844	7.407780
2230.978516	-5.328091
2229.494141	-43.313293
2228.009766	-17.337122
2226.523438	30.493223
2225.037109	29.510492
2223.550781	-1.754321
2222.064453	-48.148148
2220.576172	45.013283
2219.089844	75.937561
2217.601563	-94.832932
2216.115234	-104.233894
2214.626953	-54.843094
2213.138672	6.277509
2211.648438	1.872683
2210.160156	-31.076447
2208.669922	19.906727
2207.181641	-105.350693
2205.691406	-22.507627
2204.201172	73.714828
2202.710938	27.327408
2201.218750	-12.343872
2199.728516	50.265480
2198.236328	59.200806
2196.744141	9.469564
2195.251953	-15.115988
2193.759766	42.385544
2192.267578	46.261021
2190.775391	-80.485168
2189.281250	-24.704576
2187.787109	27.698462
2186.294922	98.483932
2184.800781	8.606455
2183.304688	64.291328
2181.810547	-17.195564
2180.316406	30.098886
2178.820313	3.804040
2177.324219	-7.444595
2175.828125	-139.018845
2174.332031	11.819309
2172.835938	109.133842
2171.337891	42.725441
2169.841797	-6.963117
2168.343750	-1.549677
2166.845703	-54.565418
2165.347656	50.967197
2163.849609	-63.785824
2162.351563	-88.422134
2160.851563	70.396500
2159.353516	-57.653393
2157.853516	162.762375
2156.353516	16.392733
2154.853516	8.388048
2153.353516	-51.269981
2151.851563	55.661369
2150.351563	-55.625641
2148.849609	42.922318
2147.347656	109.792244
2145.845703	-4.792959
2144.343750	-41.128464
2142.839844	-47.512604
2141.337891	107.451088
2139.833984	37.827301
2138.330078	8.129466
2136.826172	68.205238
2135.322266	8.580493
2133.818359	2.147079
2132.314453	63.825649
2130.808594	2.550470
2129.302734	80.792046
2127.796875	-13.684978
2126.291016	52.892353
2124.785156	-39.896610
2123.279297	68.127571
2121.771484	-3.078182
2120.263672	15.306297
2118.757813	46.945698
2117.250000	156.488693
2115.740234	108.495552
2114.232422	29.027128
2112.724609	-50.416721
2111.214844	27.545668
2109.705078	27.620026
2108.195313	42.590534
2106.685547	85.693527
2105.175781	54.281059
2103.664063	-18.504993
2102.154297	-31.698130
2100.642578	-152.428925
2099.130859	120.534058
2097.619141	60.991356
2096.107422	31.224714
2094.595703	26.257090
2093.082031	46.070629
2091.570313	-21.701786
2090.056641	46.005203
2088.542969	-28.365730
2087.029297	88.839226
2085.513672	-6.991569
2084.000000	63.927197
2082.484375	48.989902
2080.968750	25.800877
2079.455078	118.091934
2077.937500	5.816117
2076.421875	-30.565535
2074.906250	134.194672
2073.388672	63.168152
2071.873047	95.988487
2070.355469	-4.674688
2068.837891	11.653638
2067.320313	82.318207
2065.800781	-33.127701
2064.283203	-29.997173
2062.763672	-13.710993
2061.244141	48.638508
2059.724609	-109.516037
2058.205078	100.859077
2056.685547	90.759956
2055.164063	18.170504
2053.644531	31.092186
2052.123047	-13.529677
2050.601563	101.259033
2049.080078	0.764480
2047.558594	154.911484
2046.035156	51.143871
2044.513672	98.474434
2042.990234	70.260010
2041.466797	102.777039
2039.943359	89.326324
2038.419922	-30.767420
2036.896484	123.109604
2035.371094	-18.280985
2033.847656	-2.213366
2032.322266	108.915764
2030.796875	18.400000
2029.271484	59.003510
2027.744141	58.621677
2026.218750	94.271904
2024.691406	-7.665240
2023.164063	152.399780
2021.636719	81.579758
2020.109375	41.877174
2018.582031	33.273006
2017.054688	67.200378
2015.525391	-37.926842
2013.996094	51.582981
2012.468750	103.447861
2010.939453	44.125393
2009.408203	43.651218
2007.878906	101.996048
2006.347656	134.168213
2004.818359	20.959738
2003.287109	48.221699
2001.755859	1.996363
2000.224609	9.648995
1998.691406	38.503056
1997.160156	-7.713793
1995.626953	163.042313
1994.093750	15.679888
1992.560547	15.129148
1991.027344	-34.337910
1989.494141	18.896908
1987.960938	-74.565788
1986.425781	7.965089
1984.890625	4.119300
1983.355469	65.414452
1981.820313	40.376457
1980.285156	67.436981
1978.750000	-123.626595
1977.212891	41.762028
1975.675781	106.202858
1974.138672	35.596821
1972.601563	166.678314
1971.064453	-11.241096
1969.527344	-127.318611
1967.988281	15.068904
1966.451172	97.270493
1964.912109	49.454254
1963.373047	29.264219
1961.833984	15.572001
1960.292969	-54.953888
1958.753906	19.024921
1957.212891	75.109573
1955.671875	-63.557827
1954.130859	-7.492377
1952.589844	4.749318
1951.048828	86.712708
1949.505859	107.020363
1947.964844	77.064941
1946.421875	115.181389
1944.878906	25.266748
1943.335938	-28.976313
1941.792969	-0.598533
1940.248047	-4.630203
1938.705078	36.671017
1937.160156	-67.738907
1935.615234	-62.062008
1934.070313	-1.379802
1932.525391	117.509911
1930.978516	77.836563
1929.433594	-47.526562
1927.886719	-40.276398
1926.339844	-68.595917
1924.792969	21.063278
1923.246094	-10.499952
1921.699219	8.021570
1920.150391	58.827469
1918.601563	-58.327209
1917.052734	18.290979
1915.503906	10.939896
1913.955078	71.364212
1912.406250	-3.770000
1910.855469	-33.715790
1909.306641	78.272812
1907.755859	-88.745872
1906.205078	31.254726
1904.654297	14.198978
1903.101563	35.816242
1901.550781	-34.410160
1899.998047	66.126381
1898.447266	3.964386
1896.894531	15.885256
1895.339844	125.990105
1893.787109	91.195885
1892.234375	78.939964
1890.679688	139.076172
1889.125000	14.207305
1887.570313	-39.856026
1886.015625	78.135735
1884.460938	-6.470179
1882.906250	21.455673
1881.349609	44.541042
1879.792969	139.905350
1878.236328	97.095047
1876.679688	99.261551
1875.123047	109.450821
1873.566406	5.662421
1872.007813	52.765781
1870.449219	-28.517105
1868.890625	-10.309722
1867.332031	83.268364
1865.773438	83.798271
1864.214844	100.356705
1862.654297	-43.389053
1861.093750	35.676552
1859.533203	74.649773
1857.972656	-64.207603
1856.412109	85.272438
1854.851563	42.537239
1853.289063	177.514297
1851.728516	33.934238
1850.166016	68.034332
1848.603516	78.118164
1847.039063	37.003357
1845.476563	-0.895363
1843.914063	119.514549
1842.349609	145.549255
1840.785156	-13.831894
1839.220703	28.193436
1837.656250	59.014957
1836.091797	-31.574785
1834.525391	91.861954
1832.958984	103.479362
1831.392578	46.447426
1829.826172	16.567965
1828.259766	7.442616
1826.693359	87.657387
1825.125000	151.882919
1823.558594	-16.740429
1821.990234	-0.355313
1820.421875	162.671951
1818.853516	-9.047236
1817.285156	-101.029404
1815.714844	-35.267971
1814.144531	12.944488
1812.576172	-24.849157
1811.005859	-64.225639
1809.433594	15.788739
1807.863281	-17.217417
1806.292969	73.893341
1804.720703	29.746748
1803.148438	-92.314522
1801.576172	55.991341
1800.003906	-35.821911
1798.431641	37.704777
1796.857422	28.561401
1795.285156	-39.360222
1793.710938	51.587799
1792.136719	67.855064
1790.562500	200.025635
1788.986328	1.938653
1787.412109	48.360416
1785.835938	7.482292
1784.259766	45.945774
1782.683594	130.392548
1781.107422	8.643002
1779.531250	-29.023491
1777.955078	55.385826
1776.376953	-18.730820
1774.798828	18.101063
1773.220703	-81.324989
1771.642578	-77.756935
1770.064453	77.833138
1768.484375	108.278999
1766.906250	54.822033
1765.326172	63.104824
1763.746094	53.979782
1762.166016	71.752167
1760.583984	67.371498
1759.003906	-118.850563
1757.421875	63.365314
1755.841797	101.673058
1754.259766	78.330055
1752.675781	-85.624542
1751.093750	36.411900
1749.511719	-76.921623
1747.927734	133.486053
1746.343750	-30.339327
1744.759766	192.601807
1743.175781	-1.146978
1741.591797	-0.756513
1740.005859	-6.678093
1738.421875	61.530697
1736.835938	-111.530388
1735.250000	-51.210155
1733.664063	72.130630
1732.076172	61.480148
1730.490234	58.717293
1728.902344	-21.225605
1727.316406	7.530812
1725.728516	89.805122
1724.138672	-7.405982
1722.550781	48.088837
1720.962891	92.549263
1719.373047	-58.080429
1717.783203	-18.332697
1716.193359	-79.238220
1714.603516	-20.629423
1713.013672	-59.496456
1711.421875	115.379898
1709.830078	90.644882
1708.240234	20.372408
1706.648438	67.920273
1705.054688	49.499039
1703.462891	123.717865
1701.871094	179.074799
1700.277344	53.945339
1698.683594	-19.353918
1697.089844	12.478383
1695.496094	108.601517
1693.902344	77.685486
1692.306641	49.917873
1690.710938	106.801239
1689.117188	28.908947
1687.521484	9.016926
1685.923828	72.150200
1684.328125	56.965595
1682.730469	49.617039
1681.134766	-7.810452
1679.537109	44.340008
1677.939453	30.756475
1676.341797	93.839439
1674.742188	19.259954
1673.144531	88.585869
1671.544922	181.336945
1669.945313	36.464394
1668.345703	110.446320
1666.746094	-43.713257
1665.144531	45.884792
1663.544922	104.220314
1661.943359	184.395233
1660.341797	35.054024
1658.740234	73.080597
1657.138672	58.041939
1655.535156	47.692715
1653.933594	190.225052
1652.330078	109.688255
1650.726563	-23.821575
1649.123047	81.242531
1647.519531	77.170227
1645.914063	-34.415592
1644.310547	20.754707
1642.705078	80.578705
1641.099609	8.017183
1639.494141	-59.835030
1637.888672	66.927917
1636.281250	156.291306
1634.675781	51.131565
1633.068359	56.472385
1631.460938	69.596260
1629.853516	76.503288
1628.244141	103.624123
1626.636719	-34.017963
1625.027344	66.172623
1623.417969	56.015923
1621.808594	55.193176
1620.199219	136.693253
1618.589844	101.712044
1616.978516	99.352669
1615.369141	14.745143
1613.757813	-65.165627
1612.146484	72.172722
1610.535156	184.645538
1608.921875	53.598667
1607.310547	162.947647
1605.697266	196.299149
1604.083984	74.661507
1602.470703	61.552399
1600.857422	53.106686
1599.242188	120.568253
1597.628906	50.192802
1596.013672	109.906990
1594.398438	3.978832
1592.783203	3.343492
1591.167969	191.488373
1589.550781	0.556853
1587.935547	97.395279
1586.318359	51.939762
1584.701172	176.574936
1583.083984	-12.602419
1581.466797	61.021069
1579.847656	17.200212
1578.230469	-11.140227
1576.611328	68.647972
1574.992188	-4.447635
1573.373047	38.280090
1571.751953	5.372169
1570.132813	99.028099
1568.511719	43.004665
1566.890625	-6.812705
1565.269531	-33.464443
1563.648438	32.417225
1562.027344	8.877796
1560.404297	36.217216
1558.783203	35.826138
1557.160156	58.553875
1555.537109	152.135345
1553.912109	14.704538
1552.289063	22.067501
1550.664063	72.538040
1549.041016	132.237549
1547.416016	-88.104057
1545.791016	48.543919
1544.164063	92.868797
1542.539063	60.309212
1540.912109	56.984863
1539.287109	112.085281
1537.660156	15.042245
1536.033203	-5.126831
1534.404297	-52.923962
1532.777344	22.174702
1531.148438	89.577171
1529.519531	41.835445
1527.890625	-78.004974
1526.261719	112.178558
1524.632813	23.086819
1523.001953	164.116852
1521.373047	88.884033
1519.742188	-26.166246
1518.111328	-13.925977
1516.478516	-12.405251
1514.847656	56.551174
1513.214844	-16.973452
1511.583984	50.455822
1509.951172	53.558559
1508.318359	4.624774
1506.683594	-56.518585
1505.050781	61.426529
1503.416016	14.099777
1501.783203	32.587215
1500.148438	-2.445043
1498.511719	77.228737
1496.876953	141.601212
1495.242188	-85.955177
1493.605469	-73.496620
1491.968750	82.582108
1490.332031	-59.234043
1488.695313	14.348462
1487.058594	-131.938354
1485.419922	11.879203
1483.781250	25.932625
1482.142578	-10.353697
1480.503906	-51.182804
1478.865234	-58.422783
1477.226563	-67.166328
1475.585938	-83.512352
1473.945313	-0.757729
1472.304688	28.643999
1470.664063	-48.599083
1469.023438	-38.964436
1467.380859	4.188408
1465.740234	-15.084317
1464.097656	66.141823
1462.455078	2.763126
1460.812500	39.861221
1459.167969	40.449245
1457.525391	30.410341
1455.880859	135.968979
1454.236328	31.687376
1452.591797	20.194004
1450.947266	34.561699
1449.302734	164.421875
1447.656250	16.244871
1446.009766	82.302727
1444.363281	-39.940613
1442.716797	61.060318
1441.070313	34.538994
1439.421875	80.889709
1437.775391	21.037479
1436.126953	70.446632
1434.478516	75.874863
1432.830078	102.549774
1431.179688	10.988350
1429.531250	89.238884
1427.880859	87.164879
1426.230469	42.692844
1424.580078	69.450783
1422.929688	105.304955
1421.279297	59.406792
1419.626953	15.062028
1417.974609	29.781023
1416.322266	14.253292
1414.669922	131.877823
1413.017578	-0.080688
1411.363281	-0.406218
1409.710938	82.441086
1408.056641	-43.313332
1406.402344	62.220104
1404.748047	46.860786
1403.091797	26.997705
1401.437500	88.719276
1399.781250	-38.303474
1398.125000	3.824742
1396.468750	-46.108421
1394.812500	8.121211
1393.154297	8.038531
1391.498047	81.887871
1389.839844	71.279060
1388.181641	36.574017
1386.523438	16.980797
1384.865234	-23.680237
1383.205078	111.988533
1381.544922	-14.496793
1379.884766	-65.599060
1378.224609	50.487450
1376.564453	-56.264084
1374.904297	-3.399029
1373.242188	29.904226
1371.580078	-30.064459
1369.919922	-100.513870
1368.255859	-73.156357
1366.593750	-21.729195
1364.931641	-126.640221
1363.267578	5.984092
1361.603516	10.851893
1359.939453	-3.788737
1358.275391	-37.925556
1356.611328	-46.495049
1354.945313	14.026838
1353.279297	38.521935
1351.613281	-22.511679
1349.947266	-101.500732
1348.281250	-91.925171
1346.615234	6.158876
1344.947266	-95.205315
1343.279297	-70.571640
1341.611328	-38.429825
1339.943359	-40.743706
1338.275391	-77.490791
1336.605469	17.618414
1334.935547	-47.530190
1333.267578	19.133745
1331.597656	28.909994
1329.925781	-79.527992
1328.255859	12.613191
1326.583984	73.323929
1324.912109	-24.509575
1323.240234	-56.480080
1321.568359	-60.006023
1319.896484	38.138195
1318.224609	-28.122116
1316.550781	-112.258339
1314.876953	-58.903488
1313.203125	97.505432
1311.529297	79.171555
1309.853516	-66.022385
1308.179688	30.663094
1306.503906	-8.459647
1304.828125	49.434193
1303.152344	16.341208
1301.474609	-48.028580
1299.798828	23.332073
1298.121094	106.614723
1296.443359	34.891590
1294.765625	-50.186451
1293.087891	6.320544
1291.410156	28.572733
1289.730469	116.362373
1288.050781	-29.596867
1286.371094	-104.023262
1284.691406	40.365425
1283.011719	113.303062
1281.332031	47.896107
1279.650391	45.006317
1277.968750	-87.215820
1276.287109	158.234085
1274.605469	91.490799
1272.921875	97.614433
1271.240234	20.564342
1269.556641	-60.881969
1267.873047	-10.102030
1266.189453	46.620949
1264.505859	8.345060
1262.820313	1.278548
1261.134766	77.330872
1259.451172	12.448481
1257.765625	133.011841
1256.078125	44.475597
1254.392578	27.160810
1252.705078	107.704948
1251.019531	47.461155
1249.332031	126.537239
1247.642578	144.876633
1245.955078	99.552017
1244.267578	137.187408
1242.578125	102.299484
1240.888672	61.532215
1239.199219	47.442211
1237.509766	79.244286
1235.818359	-16.137527
1234.128906	-81.880455
1232.437500	-36.685692
1230.746094	48.425011
1229.054688	-43.811073
1227.363281	30.974180
1225.669922	36.328518
1223.976563	131.794998
1222.283203	120.935120
1220.589844	-102.472359
1218.896484	49.125263
1217.203125	19.183998
1215.507813	58.622364
1213.812500	-2.229159
1212.117188	50.520500
1210.421875	50.196499
1208.726563	-31.174362
1207.029297	51.101967
1205.332031	71.485214
1203.636719	93.355896
1201.937500	-4.048817
1200.240234	6.102163
1198.542969	114.909668
1196.843750	104.478561
1195.144531	67.589668
1193.445313	29.270290
1191.746094	24.823593
1190.046875	171.877457
1188.345703	79.237541
1186.644531	27.822245
1184.943359	-23.546711
1183.242188	99.986572
1181.541016	-8.618499
1179.837891	109.037148
1178.136719	175.269485
1176.433594	219.480240
1174.730469	43.525593
1173.027344	71.652550
1171.322266	154.081619
1169.619141	141.150421
1167.914063	183.982193
1166.208984	207.758636
1164.503906	259.403015
1162.796875	189.406006
1161.091797	161.954071
1159.384766	138.936813
1157.677734	93.983063
1155.970703	157.437485
1154.263672	149.149597
1152.554688	117.472534
1150.847656	138.514313
1149.138672	207.858200
1147.429688	217.220291
1145.720703	229.528214
1144.009766	205.302704
1142.300781	147.484543
1140.589844	180.336914
1138.878906	170.821884
1137.167969	102.895905
1135.455078	243.899628
1133.744141	180.415665
1132.031250	233.788055
1130.318359	151.407883
1128.605469	102.652031
1126.892578	138.568253
1125.179688	254.725311
1123.464844	203.135437
1121.750000	243.455200
1120.035156	210.888138
1118.320313	248.319901
1116.605469	234.755280
1114.888672	178.972717
1113.171875	258.701447
1111.455078	194.245071
1109.738281	115.278793
1108.021484	254.721466
1106.302734	225.307709
1104.585938	364.712067
1102.867188	178.218323
1101.148438	281.261108
1099.429688	250.501465
1097.708984	251.765427
1095.990234	216.708237
1094.269531	222.382523
1092.548828	297.815033
1090.828125	204.736633
1089.105469	264.213226
1087.384766	220.592194
1085.662109	271.373169
1083.939453	300.383575
1082.216797	274.262970
1080.492188	181.446472
1078.769531	211.971207
1077.044922	190.304306
1075.320313	235.359009
1073.595703	245.626907
1071.871094	261.708008
1070.146484	211.154892
1068.419922	264.944916
1066.693359	259.353943
1064.966797	182.836517
1063.240234	271.402252
1061.513672	248.506119
1059.785156	124.353561
1058.056641	217.279953
1056.328125	223.402878
1054.599609	136.992706
1052.871094	214.012222
1051.140625	215.859329
1049.412109	206.158295
1047.681641	109.794418
1045.951172	165.168396
1044.218750	68.897919
1042.488281	177.720383
1040.755859	169.586685
1039.023438	105.186485
1037.291016	53.819458
1035.558594	113.580711
1033.826172	184.873428
1032.091797	111.951691
1030.357422	112.609558
1028.623047	51.302471
1026.888672	150.007843
1025.154297	59.937950
1023.417969	76.529091
1021.681641	139.218781
1019.945313	170.220764
1018.208984	183.951416
1016.472656	154.514618
1014.734375	191.306702
1012.998047	55.452114
1011.259766	157.011261
1009.521484	114.735970
1007.783203	167.388824
1006.042969	77.732445
1004.302734	108.851654
1002.564453	131.347763
1000.824219	209.880508
999.082031	123.235458
997.341797	76.843872
995.599609	41.978352
993.859375	132.010056
992.117188	78.524147
990.373047	43.733932
988.630859	183.963089
986.886719	180.745621
985.144531	210.515976
983.400391	184.389297
981.656250	-53.817921
979.910156	54.846172
978.166016	81.818840
976.419922	143.173325
974.673828	32.685078
972.927734	31.061975
971.181641	86.706230
969.433594	186.707947
967.687500	77.793289
965.939453	147.743668
964.191406	177.635727
962.441406	58.837929
960.693359	104.487961
958.943359	68.675453
957.195313	211.492615
955.445313	89.986168
953.693359	4.257085
951.943359	57.081596
950.191406	97.053856
948.441406	134.161453
946.689453	139.877014
944.935547	62.859638
943.183594	87.156403
941.431641	125.715988
939.677734	161.426071
937.923828	103.050591
936.169922	-8.019453
934.414063	157.401505
932.660156	59.212456
930.904297	234.541534
929.148438	78.025162
927.392578	82.459625
925.636719	122.487366
923.878906	51.518139
922.123047	-3.765476
920.365234	97.458603
918.607422	36.527927
916.849609	78.005379
915.089844	10.025357
913.330078	123.999626
911.572266	60.316452
909.812500	50.659859
908.050781	150.385712
906.291016	100.974258
904.529297	74.315643
902.767578	131.420685
901.005859	107.624710
899.244141	100.873398
897.482422	18.956688
895.718750	-30.291695
893.957031	84.954102
892.193359	-69.166649
890.427734	16.306898
888.664063	77.658562
886.898438	-4.079766
885.134766	27.525120
883.369141	-20.165756
881.603516	38.351021
879.835938	-2.221120
878.070313	83.170601
876.302734	12.912175
874.535156	21.903955
872.767578	-8.696932
871.000000	89.386261
869.230469	24.880461
867.460938	12.701130
865.693359	-78.597610
863.921875	-18.681938
862.152344	53.920280
860.382813	-1.998102
858.611328	-47.996262
856.839844	14.713799
855.068359	28.014311
853.296875	-13.706635
851.523438	-18.722055
849.751953	5.879536
847.978516	-120.377480
846.205078	14.205997
844.431641	12.034669
842.656250	-77.481346
840.880859	-83.838753
839.107422	18.253317
837.332031	21.748022
835.554688	-100.039764
833.779297	-68.359283
832.001953	-9.943373
830.226563	34.378139
828.447266	-68.990761
826.669922	-35.907337
824.892578	-158.895020
823.113281	20.400728
821.333984	-1.341565
819.554688	38.753036
817.775391	5.789447
815.996094	-14.514628
814.214844	-51.647907
812.435547	-17.170259
810.654297	18.708046
808.871094	-73.111679
807.089844	84.828758
805.306641	-11.163328
803.525391	40.129524
801.742188	104.029305
799.958984	-17.120422
798.173828	77.612068
796.390625	-7.040638
794.605469	2.208799
792.820313	49.273277
791.035156	5.308510
789.248047	28.569008
787.462891	-117.533234
785.675781	-3.292374
783.888672	110.903694
782.101563	53.016365
780.314453	-2.044983
778.525391	112.097229
776.736328	-88.306946
774.947266	63.545425
773.158203	77.015404
771.369141	86.294128
769.578125	76.027252
767.789063	32.252228
765.998047	63.889328
764.207031	149.947632
762.414063	1.559129
760.623047	70.861862
758.830078	18.801508
757.037109	0.235039
755.244141	23.505213
753.451172	24.468222
751.656250	22.654293
749.863281	27.805191
748.068359	-64.541557
746.271484	70.163353
744.476563	0.133375
742.681641	-33.668880
740.884766	71.727997
739.087891	-10.760195
737.291016	-23.651997
735.494141	-32.361221
733.695313	-91.114685
731.896484	93.451164
730.097656	48.603680
728.298828	46.858009
726.500000	-52.134705
724.701172	23.936344
722.900391	-24.999388
721.099609	6.618682
719.298828	-7.580276
717.496094	-27.313274
715.695313	26.498568
713.892578	-15.419612
712.089844	57.798668
710.287109	40.859982
708.484375	-95.289101
706.679688	-13.764740
704.876953	-29.276886
703.072266	-33.687767
701.267578	-56.098434
699.460938	15.678929
697.656250	-33.028290
695.849609	-11.108662
694.042969	-40.397854
692.236328	7.812435
690.429688	38.023968
688.621094	32.276398
686.812500	98.436676
685.005859	-31.733456
683.195313	-0.123199
681.386719	-8.599831
679.578125	17.470066
677.767578	-53.142628
675.957031	39.226162
674.146484	45.963955
672.333984	-24.585110
670.523438	66.354774
668.710938	1.362445
666.898438	-5.660970
665.085938	39.730164
663.273438	17.546909
661.458984	72.581688
659.644531	-21.245350
657.830078	-10.305697
656.015625	24.054785
654.201172	-0.816406
652.384766	69.348763
650.570313	21.088232
648.753906	26.541742
646.935547	76.041435
645.119141	3.074441
643.300781	26.437767
641.484375	-50.597538
639.666016	69.024345
637.847656	97.878563
636.027344	41.528374
634.208984	-31.284016
632.388672	-58.718071
630.568359	14.125314
628.748047	0.440339
626.925781	19.723160
625.105469	103.506454
623.283203	55.537811
621.460938	22.689205
619.636719	6.329876
617.814453	11.920189
615.990234	129.945816
614.167969	88.921066
612.343750	137.006195
610.517578	60.407154
608.693359	60.552994
606.867188	110.017365
605.041016	89.640450
603.214844	13.157236
601.388672	14.727763
599.562500	25.885595
597.734375	78.096016
595.906250	74.217979
594.078125	47.106098
592.250000	91.106453
590.419922	140.572296
588.591797	129.893936
586.761719	93.279953
584.931641	97.670815
583.099609	85.690323
581.269531	114.679138
579.437500	50.852539
577.605469	157.655563
575.773438	136.167938
573.941406	11.027966
572.107422	113.721085
570.273438	161.840256
568.439453	95.439308
566.605469	18.176584
564.771484	139.904739
562.935547	144.438599
561.101563	50.909397
559.265625	96.338760
557.427734	149.937042
555.591797	-6.098186
553.753906	156.393677
551.917969	78.003479
550.080078	109.848640
548.240234	162.100464
546.402344	116.440529
544.562500	35.478767
542.724609	116.287575
540.884766	70.717415
539.042969	-8.772574
537.203125	86.982933
535.361328	4.837648
533.519531	16.415539
531.677734	113.511391
529.835938	-18.749212
527.994141	101.405563
526.150391	-59.240982
524.306641	54.127434
522.462891	4.767008
520.619141	35.417820
518.773438	17.290947
516.927734	24.931128
515.082031	31.229067
513.236328	26.705597
511.390625	-86.120163
509.542969	55.624294
507.697266	9.191003
505.849609	-53.435574
504.000000	-26.724813
502.152344	-6.779521
500.302734	6.419999
498.455078	-58.789181
496.605469	-77.990105
494.753906	-13.375790
492.904297	-14.981588
491.052734	-19.263508
489.203125	-51.893921
487.351563	3.273994
485.498047	-3.650814
483.646484	27.224125
481.792969	47.315964
479.939453	-74.224968
478.085938	-9.579825
476.232422	19.996256
474.376953	-43.432854
472.523438	31.996048
470.667969	-4.424496
468.812500	22.505522
466.955078	48.101711
465.099609	-39.418129
463.242188	44.104603
461.384766	28.003613
459.527344	-29.790497
457.667969	30.861408
455.810547	-18.804012
453.951172	-71.112671
452.091797	-60.189457
450.232422	20.644962
448.371094	43.679169
446.511719	-7.188247
444.650391	89.757675
442.789063	41.628246
440.927734	-29.290779
439.064453	-18.265493
437.201172	-38.099197
435.337891	6.500663
433.474609	25.606167
431.611328	-7.591231
429.748047	57.131901
427.882813	-57.801796
426.017578	-37.291943
424.152344	4.664641
422.285156	13.129761
420.419922	18.917774
418.552734	20.707226
416.685547	-44.436298
414.818359	-1.110995
412.949219	-18.007992
411.082031	-1.443223
409.212891	35.200367
407.343750	21.016815
405.472656	-50.637905
403.603516	-35.363541
401.732422	34.721134
399.861328	1.893660
397.990234	1.153134
396.119141	33.813820
394.246094	-6.968305
392.375000	-21.030712
390.501953	3.637942
388.628906	14.957891
386.753906	59.642921
384.880859	-10.408690
383.005859	-71.080170
381.130859	-27.721638
379.253906	-60.351048
377.378906	50.963474
375.501953	11.676532
373.626953	11.033444
371.748047	13.072717
369.871094	87.007935
367.994141	-53.419693
366.115234	-54.026863
364.236328	30.527796
362.357422	29.900511
360.478516	-43.882881
358.597656	52.583485
356.716797	0.101109
354.835938	11.438438
352.955078	-19.759392
351.074219	48.695461
349.191406	-10.396773
347.308594	-0.414356
345.425781	-47.537441
343.542969	34.110683
341.658203	-11.685287
339.775391	-17.676018
337.890625	5.514731
336.005859	-7.128091
334.119141	53.155136
332.234375	11.310559
330.347656	22.489798
328.460938	41.595486
326.574219	-13.515680
324.685547	-14.311872
322.798828	-60.161068
320.910156	-0.093669
319.021484	40.067589
317.132813	6.078181
315.242188	43.526764
313.351563	8.178483
311.460938	-58.923923
309.570313	-20.257536
307.679688	-4.113910
305.787109	14.637492
303.896484	-38.013283
302.003906	67.845207
300.111328	49.471310
298.216797	-15.143435
296.322266	-13.768747
294.429688	-23.006468
292.535156	-17.766354
290.638672	8.536505
288.744141	-3.480413
286.847656	6.878159
284.951172	-27.647173
283.054688	-23.991751
281.158203	-17.762102
279.259766	-45.844601
277.361328	80.130592
275.462891	16.352232
273.564453	19.679688
271.666016	12.404174
269.765625	-9.410830
267.865234	18.704990
265.964844	-12.463880
264.064453	-23.972357
262.162109	-6.626625
260.261719	19.821453
258.359375	9.376041
256.457031	38.263046
254.552734	40.775806
252.650391	53.691826
250.746094	6.106087
248.841797	85.780327
246.937500	-13.186759
245.031250	36.066700
243.126953	-18.460028
241.220703	20.053730
239.314453	33.516956
237.406250	100.610886
235.500000	29.916342
233.591797	-18.591949
231.683594	6.159811
229.775391	16.357222
227.865234	17.248894
225.957031	20.613018
224.046875	40.850849
222.136719	50.461132
220.226563	-23.825422
218.314453	-19.744324
216.402344	-27.596607
214.490234	17.999359
212.578125	17.651953
210.666016	-63.900391
208.751953	-41.056858
206.839844	-22.326540
204.925781	-19.461365
203.009766	-20.703484
201.095703	-18.225119
