#Wave		#Intensity
4001.644531	233.670532
4000.500000	288.266449
3999.354492	320.965118
3998.209961	272.879486
3997.064453	301.203674
3995.918945	331.699707
3994.772461	261.820160
3993.626953	283.586487
3992.480469	272.629272
3991.333984	250.772919
3990.187500	344.476959
3989.040039	257.220398
3987.893555	300.761871
3986.746094	224.440491
3985.598633	246.185638
3984.451172	287.526917
3983.302734	235.206100
3982.154297	276.534180
3981.006836	293.899689
3979.857422	211.133606
3978.708984	243.738373
3977.560547	217.583588
3976.411133	319.789154
3975.261719	297.980072
3974.112305	347.941986
3972.961914	295.696381
3971.811523	299.989746
3970.662109	356.444092
3969.511719	262.937866
3968.360352	299.824463
3967.209961	271.530243
3966.058594	288.855103
3964.907227	336.573792
3963.755859	297.433136
3962.604492	275.672028
3961.452148	223.535446
3960.299805	262.551636
3959.147461	262.503387
3957.995117	273.300385
3956.841797	284.093414
3955.689453	301.387207
3954.536133	283.988983
3953.382813	266.597107
3952.228516	262.213989
3951.075195	249.165817
3949.920898	316.274078
3948.766602	361.699036
3947.612305	288.006744
3946.458008	311.769501
3945.302734	320.370819
3944.147461	259.712341
3942.992188	292.122650
3941.836914	281.251556
3940.680664	359.070526
3939.525391	298.449493
3938.369141	341.640167
3937.211914	304.825317
3936.055664	270.185486
3934.898438	304.713165
3933.742188	291.692932
3932.584961	289.478973
3931.426758	317.504303
3930.269531	298.010406
3929.111328	360.569397
3927.953125	233.139664
3926.794922	265.471313
3925.636719	284.843567
3924.477539	312.838745
3923.319336	263.167572
3922.160156	258.805695
3921.000000	256.601715
3919.840820	297.516937
3918.680664	269.440338
3917.520508	239.218948
3916.360352	280.114716
3915.200195	316.686768
3914.040039	271.395782
3912.878906	271.345795
3911.717773	282.061493
3910.556641	322.911682
3909.394531	314.242798
3908.233398	253.930252
3907.071289	262.489655
3905.909180	277.499390
3904.746094	253.789871
3903.583984	290.299286
3902.420898	281.645905
3901.257813	262.247833
3900.094727	262.199493
3898.931641	275.043823
3897.767578	305.070496
3896.603516	339.382050
3895.439453	294.220032
3894.275391	253.369064
3893.111328	257.615936
3891.946289	259.714813
3890.781250	302.587067
3889.616211	278.929535
3888.451172	225.247665
3887.285156	201.613098
3886.119141	231.597839
3884.953125	227.267044
3883.787109	222.937851
3882.620117	265.761475
3881.454102	235.712631
3880.287109	282.802948
3879.120117	269.898438
3877.952148	259.140350
3876.785156	263.375031
3875.617188	248.340363
3874.449219	267.558746
3873.281250	248.248688
3872.112305	220.387009
3870.944336	286.664154
3869.775391	288.750092
3868.606445	269.450317
3867.436523	282.229156
3866.267578	252.249176
3865.097656	297.086090
3863.927734	282.072815
3862.757813	273.474609
3861.587891	213.612579
3860.416992	305.409546
3859.246094	232.751694
3858.075195	273.272583
3856.904297	281.760284
3855.732422	217.683609
3854.560547	234.713455
3853.388672	281.604095
3852.216797	292.216888
3851.044922	226.053040
3849.872070	264.390533
3848.699219	240.891983
3847.526367	242.978836
3846.353516	283.422913
3845.179688	319.590790
3844.005859	298.229584
3842.832031	287.525360
3841.658203	251.271973
3840.484375	272.515808
3839.309570	298.009033
3838.134766	251.132584
3836.959961	238.319046
3835.785156	268.059326
3834.609375	219.087326
3833.434570	301.986847
3832.258789	297.678406
3831.082031	280.616302
3829.906250	320.948639
3828.729492	316.639038
3827.552734	237.966507
3826.375977	237.922470
3825.199219	284.604553
3824.021484	284.551880
3822.844727	307.853607
3821.666992	239.869095
3820.489258	337.452423
3819.310547	250.390030
3818.131836	305.504120
3816.954102	224.843338
3815.774414	269.337891
3814.595703	313.815948
3813.416992	269.238129
3812.237305	258.590302
3811.057617	264.900024
3809.877930	305.108276
3808.697266	256.328217
3807.516602	319.821411
3806.336914	351.526611
3805.155273	304.882233
3803.974609	283.657288
3802.792969	296.303467
3801.612305	281.436127
3800.430664	228.492233
3799.248047	236.910995
3798.066406	277.049896
3796.883789	194.533325
3795.701172	234.665176
3794.518555	308.601471
3793.335938	293.751038
3792.152344	219.744202
3790.968750	255.616516
3789.785156	272.466248
3788.601563	308.315460
3787.417969	259.697052
3786.233398	263.870819
3785.048828	278.595917
3783.864258	261.662750
3782.678711	278.492554
3781.494141	259.456299
3780.308594	194.028854
3779.123047	269.903107
3777.937500	261.420135
3776.750977	263.479462
3775.564453	269.752899
3774.377930	240.204071
3773.191406	271.759430
3772.004883	250.646271
3770.817383	246.387985
3769.629883	223.181870
3768.442383	235.771027
3767.254883	193.633102
3766.066406	223.057587
3764.878906	178.833725
3763.690430	317.633850
3762.500977	273.408844
3761.312500	290.180084
3760.123047	231.260010
3758.933594	252.236786
3757.744141	243.783600
3756.554688	220.625198
3755.364258	260.499451
3754.173828	252.049408
3752.983398	237.302429
3751.792969	262.453918
3750.602539	188.931702
3749.411133	256.059845
3748.219727	270.701477
3747.028320	266.455017
3745.835938	274.796234
3744.644531	253.772232
3743.452148	251.628159
3742.259766	337.538361
3741.067383	243.150116
3739.874023	291.306763
3738.680664	291.252594
3737.487305	270.248901
3736.293945	274.387787
3735.100586	247.112488
3733.906250	257.535461
3732.711914	240.740387
3731.517578	301.392761
3730.323242	303.429321
3729.127930	230.144943
3727.932617	299.132751
3726.737305	240.516556
3725.541992	273.928741
3724.345703	263.424438
3723.150391	290.549072
3721.954102	319.753479
3720.757813	298.798950
3719.560547	290.386871
3718.364258	284.066650
3717.166992	286.102112
3715.969727	296.488586
3714.771484	304.783630
3713.574219	290.116669
3712.375977	325.537964
3711.177734	300.440613
3709.979492	296.212646
3708.780273	300.328735
3707.582031	302.358032
3706.382813	250.180725
3705.183594	335.596619
3703.983398	283.432526
3702.784180	279.212402
3701.583984	258.327515
3700.383789	304.103149
3699.182617	295.716431
3697.982422	279.004364
3696.781250	268.543701
3695.580078	322.608643
3694.378906	337.115234
3693.177734	289.199280
3691.975586	328.668854
3690.773438	274.532928
3689.571289	332.705139
3688.369141	270.272522
3687.166016	286.851196
3685.962891	293.032440
3684.759766	282.588531
3683.556641	322.007751
3682.352539	292.868530
3681.149414	301.120697
3679.945313	303.140839
3678.740234	276.097351
3677.536133	230.384125
3676.331055	294.670654
3675.126953	275.942871
3673.920898	302.858185
3672.715820	342.207397
3671.510742	292.377197
3670.304688	348.299316
3669.098633	265.321381
3667.891602	348.169342
3666.685547	300.447205
3665.478516	335.609406
3664.271484	352.116974
3663.064453	333.413208
3661.857422	370.620026
3660.649414	343.639313
3659.441406	333.226501
3658.233398	362.135101
3657.025391	335.171021
3655.816406	318.559875
3654.607422	335.045837
3653.398438	392.881622
3652.189453	332.853302
3650.980469	355.528412
3649.770508	382.328308
3648.560547	373.991852
3647.350586	355.329163
3646.139648	359.393738
3644.929688	324.219971
3643.718750	379.906525
3642.507813	369.513916
3641.295898	334.357910
3640.084961	373.502930
3638.873047	340.422455
3637.661133	379.551636
3636.449219	408.354218
3635.236328	350.541626
3634.023438	395.831787
3632.810547	371.022919
3631.597656	428.657440
3630.384766	424.456329
3629.170898	432.617279
3627.957031	397.521545
3626.743164	450.989288
3625.529297	450.904938
3624.314453	411.708313
3623.099609	376.642609
3621.884766	442.420837
3620.669922	423.821594
3619.454102	466.939331
3618.239258	477.135040
3617.023438	454.427185
3615.806641	483.123993
3614.590820	427.536102
3613.374023	390.464691
3612.157227	482.852783
3610.940430	544.391663
3609.723633	593.583862
3608.505859	486.688721
3607.288086	476.331848
3606.070313	582.986694
3604.852539	611.610901
3603.633789	541.728333
3602.415039	562.143066
3601.196289	574.345154
3599.977539	578.339294
3598.758789	615.139343
3597.539063	582.222839
3596.319336	580.064026
3595.099609	666.026489
3593.878906	641.314575
3592.659180	663.728394
3591.438477	675.893005
3590.217773	698.291870
3588.996094	622.407471
3587.775391	706.218201
3586.553711	789.997437
3585.332031	761.202026
3584.109375	816.297485
3582.887695	789.553284
3581.665039	828.261963
3580.442383	783.123108
3579.219727	862.704956
3577.996094	911.597778
3576.773438	882.817017
3575.549805	927.601257
3574.325195	953.983582
3573.101563	937.465393
3571.876953	990.382202
3570.652344	1010.612793
3569.427734	1051.248413
3568.203125	1102.073120
3566.977539	1085.542358
3565.752930	1183.263916
3564.526367	1099.413086
3563.300781	1170.583862
3562.075195	1202.987549
3560.848633	1314.883667
3559.622070	1371.706299
3558.395508	1416.280762
3557.167969	1552.522827
3555.940430	1601.120483
3554.712891	1708.763184
3553.485352	1796.002563
3552.257813	1866.921875
3551.029297	2013.128784
3549.800781	2081.945313
3548.572266	2197.535400
3547.343750	2184.916504
3546.114258	2292.307617
3544.884766	2267.473633
3543.655273	2246.715332
3542.425781	2189.373535
3541.195313	2138.150635
3539.965820	2064.593994
3538.734375	1954.494385
3537.503906	1883.031006
3536.273438	1833.934692
3535.041992	1776.734497
3533.810547	1703.314331
3532.579102	1672.547363
3531.346680	1617.438843
3530.115234	1544.089844
3528.882813	1446.424561
3527.650391	1486.717896
3526.416992	1508.744995
3525.184570	1342.206177
3523.951172	1439.255615
3522.717773	1339.674683
3521.483398	1361.712646
3520.250000	1375.638428
3519.015625	1328.790894
3517.781250	1437.902588
3516.545898	1271.595703
3515.311523	1358.407959
3514.076172	1366.248657
3512.840820	1390.275879
3511.605469	1347.524658
3510.369141	1361.431641
3509.133789	1419.829346
3507.897461	1322.498047
3506.660156	1380.880859
3505.423828	1419.027710
3504.186523	1416.739624
3502.949219	1491.236694
3501.711914	1507.118164
3500.474609	1537.132568
3499.236328	1552.999268
3497.998047	1562.802368
3496.759766	1590.770508
3495.521484	1669.187134
3494.282227	1652.728882
3493.042969	1737.156860
3491.803711	1702.536865
3490.564453	1799.024658
3489.324219	1857.163208
3488.084961	1838.668457
3486.844727	1842.353516
3485.603516	1987.109619
3484.363281	1986.735229
3483.122070	2117.307373
3481.880859	2167.263184
3480.639648	2209.144531
3479.397461	2367.788818
3478.156250	2270.716064
3476.914063	2370.921387
3475.671875	2442.916748
3474.428711	2641.635010
3473.186523	2677.344482
3471.943359	2674.828369
3470.700195	2796.980957
3469.456055	2876.869141
3468.212891	2888.386719
3466.968750	3002.390869
3465.724609	3152.518555
3464.479492	3288.527344
3463.235352	3342.136230
3461.990234	3367.611084
3460.745117	3517.556152
3459.499023	3486.781982
3458.253906	3636.647461
3457.007813	3672.080078
3455.761719	3757.654541
3454.515625	3857.237549
3453.268555	3934.722656
3452.021484	4092.381592
3450.775391	4167.788086
3449.527344	4227.130859
3448.280273	4394.665039
3447.032227	4433.906738
3445.784180	4499.174805
3444.536133	4650.539063
3443.287109	4871.931641
3442.039063	4965.107910
3440.790039	5050.242676
3439.541016	5431.537598
3438.291016	5458.524414
3437.041992	5795.585938
3435.791992	5938.502930
3434.541992	6367.336426
3433.291016	6724.028320
3432.041016	7032.608398
3430.790039	7245.135742
3429.539063	7417.616699
3428.287109	7807.803711
3427.036133	7844.280762
3425.784180	8034.524414
3424.532227	7969.108887
3423.280273	8099.364258
3422.027344	8125.776855
3420.774414	7798.951660
3419.521484	7797.477051
3418.268555	7536.667480
3417.014648	7385.654297
3415.761719	7236.691895
3414.507813	6956.198242
3413.252930	6574.147949
3411.999023	6156.368164
3410.744141	5932.029785
3409.489258	5695.822754
3408.234375	5310.314941
3406.978516	4966.773926
3405.723633	4790.616211
3404.467773	4518.969727
3403.210938	4293.204102
3401.955078	4009.813965
3400.698242	3826.011230
3399.441406	3648.245605
3398.184570	3396.959717
3396.927734	3316.777588
3395.669922	3019.922852
3394.412109	2917.977051
3393.154297	2905.500488
3391.896484	2672.474854
3390.637695	2658.062500
3389.378906	2421.199219
3388.120117	2305.561768
3386.861328	2299.168701
3385.601563	2229.255127
3384.341797	2193.107910
3383.082031	2043.867188
3381.822266	2039.512085
3380.561523	1945.897095
3379.300781	1858.267090
3378.040039	1804.378540
3376.779297	1774.299683
3375.517578	1647.110107
3374.256836	1632.926025
3372.995117	1555.344604
3371.732422	1481.754395
3370.470703	1511.182129
3369.208008	1431.687500
3367.945313	1338.364136
3366.682617	1359.884277
3365.418945	1316.086670
3364.155273	1252.518677
3362.891602	1218.649536
3361.627930	1113.586914
3360.363281	1154.904907
3359.099609	1063.734497
3357.834961	1083.300903
3356.569336	1006.013855
3355.304688	988.038269
3354.039063	966.118103
3352.773438	928.403564
3351.507813	916.377625
3350.241211	896.457947
3348.975586	805.474548
3347.708984	805.321655
3346.442383	864.372375
3345.174805	745.823608
3343.907227	745.682007
3342.639648	753.429749
3341.372070	771.034241
3340.104492	757.086792
3338.835938	654.440308
3337.567383	746.945129
3336.298828	721.187317
3335.029297	673.768372
3333.760742	667.731262
3332.491211	649.880371
3331.221680	612.346680
3329.951172	659.476440
3328.681641	610.145813
3327.411133	562.801758
3326.139648	572.532166
3324.869141	605.863892
3323.597656	582.148132
3322.327148	562.374084
3321.054688	597.654602
3319.783203	536.607544
3318.510742	546.331665
3317.238281	520.684753
3315.965820	575.591064
3314.693359	567.625183
3313.419922	553.771179
3312.146484	545.812439
3310.873047	596.746155
3309.599609	533.829224
3308.325195	521.954285
3307.050781	553.244751
3305.776367	470.757050
3304.501953	562.839905
3303.226563	496.067596
3301.951172	541.061707
3300.675781	535.078735
3299.400391	574.169373
3298.124023	525.078857
3296.847656	562.197571
3295.571289	532.713013
3294.294922	507.155945
3293.017578	530.552490
3291.740234	510.877625
3290.462891	526.436462
3289.185547	510.683136
3287.907227	500.804565
3286.628906	492.885620
3285.350586	512.346985
3284.072266	486.832458
3282.792969	527.790039
3281.513672	547.233582
3280.234375	513.910767
3278.955078	509.905579
3277.674805	515.668274
3276.394531	533.146301
3275.114258	581.858337
3273.833984	527.086609
3272.552734	472.335754
3271.272461	489.808624
3269.990234	421.428284
3268.708984	518.882202
3267.426758	448.572021
3266.145508	448.486511
3264.862305	444.501862
3263.580078	549.673828
3262.296875	469.667145
3261.014648	436.453857
3259.731445	475.332306
3258.447266	496.666473
3257.164063	461.519623
3255.879883	513.999756
3254.595703	465.236786
3253.310547	480.717865
3252.026367	418.358795
3250.741211	490.261871
3249.456055	505.729248
3248.169922	530.914368
3246.884766	464.704468
3245.598633	452.951813
3244.312500	532.554138
3243.025391	495.530579
3241.739258	441.035187
3240.452148	479.801331
3239.165039	491.362579
3237.876953	491.268799
3236.589844	487.292175
3235.301758	440.614380
3234.013672	494.868774
3232.724609	428.804352
3231.436523	459.761200
3230.147461	399.547333
3228.857422	449.889709
3227.568359	442.048523
3226.278320	383.810913
3224.989258	391.489868
3223.698242	472.798401
3222.408203	451.397461
3221.117188	428.067719
3219.826172	406.683472
3218.535156	462.756042
3217.244141	377.490326
3215.952148	348.385986
3214.660156	404.437531
3213.368164	386.947571
3212.076172	348.186249
3210.783203	336.515686
3209.490234	378.991180
3208.197266	402.117828
3206.903320	376.913361
3205.610352	340.123413
3204.316406	363.244171
3203.022461	341.925110
3201.727539	330.271240
3200.432617	314.759735
3199.137695	335.936920
3197.842773	339.733276
3196.547852	316.509064
3195.251953	333.814575
3193.956055	349.184265
3192.660156	277.750885
3191.363281	331.694519
3190.067383	356.696167
3188.770508	329.639862
3187.472656	300.666504
3186.175781	356.491394
3184.877930	335.230408
3183.580078	275.452698
3182.282227	288.881073
3180.983398	354.292938
3179.684570	263.743683
3178.385742	304.113312
3177.086914	288.659882
3175.788086	265.516205
3174.488281	330.869873
3173.188477	294.263916
3171.887695	315.359711
3170.587891	271.080505
3169.287109	334.460754
3167.986328	261.367523
3166.685547	295.903564
3165.383789	370.769104
3164.082031	288.107300
3162.780273	299.574158
3161.478516	226.557541
3160.175781	337.851563
3158.873047	303.240417
3157.570313	301.263397
3156.267578	272.428040
3154.963867	306.902313
3153.660156	326.021179
3152.356445	291.445374
3151.052734	266.468018
3149.748047	289.416931
3148.443359	295.110321
3147.138672	325.708649
3145.833984	329.477295
3144.528320	306.431702
3143.222656	250.842819
3141.916992	260.367004
3140.610352	269.887543
3139.304688	290.886749
3137.998047	290.830933
3136.691406	277.384155
3135.383789	309.845581
3134.076172	296.400269
3132.768555	281.048248
3131.460938	265.702087
3130.153320	284.762634
3128.844727	301.905090
3127.536133	248.355225
3126.227539	252.127655
3124.917969	297.911835
3123.608398	336.041107
3122.298828	265.345123
3120.989258	297.740204
3119.678711	272.876099
3118.369141	339.598694
3117.057617	291.846161
3115.747070	284.161591
3114.436523	282.200226
3113.125000	238.298981
3111.813477	259.219482
3110.500977	301.094147
3109.189453	285.793945
3107.876953	293.358704
3106.564453	304.729675
3105.250977	253.257858
3103.937500	283.670410
3102.625000	291.229736
3101.310547	293.076813
3099.997070	247.354935
3098.682617	277.745209
3097.368164	308.123749
3096.053711	294.753052
3094.739258	298.498901
3093.423828	288.936981
3092.108398	304.085663
3090.792969	290.725983
3089.476563	260.273193
3088.160156	248.826462
3086.843750	303.851715
3085.527344	269.616486
3084.210938	258.174561
3082.893555	332.145966
3081.576172	290.334564
3080.257813	276.997955
3078.940430	246.594543
3077.622070	297.752991
3076.303711	286.318756
3074.984375	297.638336
3073.666016	303.267303
3072.346680	240.672058
3071.027344	278.519531
3069.707031	286.043182
3068.387695	289.776001
3067.067383	318.124115
3065.747070	319.956085
3064.425781	327.465912
3063.104492	302.800293
3061.783203	272.467743
3060.461914	279.982330
3059.140625	272.362732
3057.818359	293.111725
3056.496094	285.492523
3055.173828	294.889069
3053.850586	306.171936
3052.527344	262.652435
3051.204102	347.616760
3049.880859	309.772583
3048.556641	285.162445
3047.233398	294.548126
3045.909180	324.695557
3044.583984	292.547119
3043.259766	298.151794
3041.934570	266.020874
3040.608398	248.992767
3039.283203	311.180908
3037.957031	292.265076
3036.630859	305.405212
3035.304688	265.764343
3033.978516	310.940826
3032.651367	246.820526
3031.324219	239.237839
3029.997070	320.177826
3028.668945	231.613358
3027.341797	289.931488
3026.013672	267.287811
3024.684570	284.173706
3023.356445	316.105743
3022.027344	344.262970
3020.698242	282.128296
3019.368164	265.149384
3018.039063	283.899445
3016.708984	287.604156
3015.378906	293.186829
3014.047852	308.162506
3012.717773	270.529419
3011.386719	309.921753
3010.055664	257.279266
3008.723633	279.760590
3007.392578	322.882721
3006.060547	281.529358
3004.727539	290.857452
3003.395508	288.925079
3002.062500	288.869232
3000.729492	230.675644
2999.396484	277.507294
2998.062500	305.573944
2996.728516	309.263489
2995.394531	275.472382
2994.060547	292.281525
2992.725586	267.872925
2991.390625	305.278595
2990.055664	286.494446
2988.720703	275.206116
2987.384766	267.665741
2986.048828	288.199646
2984.712891	301.241333
2983.376953	286.217438
2982.040039	295.513763
2980.703125	243.097183
2979.366211	287.920929
2978.028320	285.995941
2976.690430	306.498413
2975.352539	270.937012
2974.014648	261.543701
2972.675781	248.418427
2971.336914	304.393707
2969.998047	304.334778
2968.659180	270.674835
2967.319336	251.958817
2965.979492	244.446014
2964.639648	255.592514
2963.299805	283.522186
2961.958984	251.763687
2960.618164	294.599670
2959.277344	305.727783
2957.935547	285.166382
2956.593750	288.838074
2955.251953	288.782104
2953.910156	236.569168
2952.567383	316.606018
2951.225586	253.235733
2949.881836	271.803314
2948.539063	251.276276
2947.195313	281.002686
2945.852539	288.390533
2944.507813	301.356201
2943.164063	293.858307
2941.819336	310.536865
2940.474609	351.377747
2939.129883	228.630066
2937.784180	215.576782
2936.439453	310.296051
2935.093750	256.362549
2933.747070	310.175659
2932.401367	297.116638
2931.054688	226.507492
2929.708008	258.019928
2928.360352	243.122681
2927.013672	243.075500
2925.666016	313.525116
2924.318359	252.255264
2922.969727	229.952805
2921.621094	309.634399
2920.272461	270.645782
2918.923828	263.179718
2917.575195	274.246735
2916.225586	285.309448
2914.875977	275.992554
2913.525391	268.531219
2912.175781	261.072723
2910.825195	298.046448
2909.474609	279.479950
2908.123047	275.724640
2906.772461	233.117844
2905.420898	225.673416
2904.069336	273.714569
2902.716797	257.019806
2901.364258	310.582306
2900.011719	290.190155
2898.659180	243.934113
2897.305664	240.191452
2895.953125	284.479187
2894.599609	284.423889
2893.245117	288.061707
2891.891602	260.312836
2890.537109	304.562195
2889.181641	258.366150
2887.827148	274.921936
2886.471680	265.644714
2885.116211	276.659424
2883.760742	276.605621
2882.405273	248.896637
2881.048828	256.221497
2879.692383	246.956848
2878.334961	278.233063
2876.978516	259.756470
2875.621094	326.013824
2874.263672	276.229156
2872.905273	300.110596
2871.547852	279.803284
2870.189453	312.876953
2868.830078	288.894836
2867.471680	253.883621
2866.112305	296.139893
2864.752930	305.277344
2863.393555	294.185944
2862.033203	248.171051
2860.672852	262.826294
2859.312500	240.724045
2857.952148	246.188858
2856.590820	297.573334
2855.229492	280.986755
2853.868164	268.078918
2852.505859	216.624313
2851.144531	299.176971
2849.782227	286.273102
2848.418945	269.704773
2847.056641	242.136703
2845.693359	326.454041
2844.330078	227.373093
2842.965820	302.493958
2841.602539	265.776184
2840.238281	329.864746
2838.874023	251.014786
2837.508789	247.302124
2836.143555	283.884094
2834.778320	258.192596
2833.413086	256.311462
2832.046875	276.396301
2830.681641	259.871674
2829.314453	268.969604
2827.948242	278.063995
2826.581055	250.574570
2825.214844	334.643799
2823.846680	217.567444
2822.479492	277.847046
2821.111328	279.620422
2819.743164	272.256958
2818.375000	237.493271
2817.005859	299.548401
2815.636719	250.183670
2814.267578	314.037903
2812.898438	270.165924
2811.528320	273.763336
2810.158203	328.451874
2808.788086	328.387756
2807.416992	299.139313
2806.046875	264.431274
2804.675781	273.496155
2803.303711	267.973907
2801.932617	273.389343
2800.560547	218.668747
2799.188477	313.363983
2797.815430	329.696503
2796.443359	318.705078
2795.070313	287.688934
2793.696289	242.121201
2792.323242	271.195557
2790.949219	276.601807
2789.575195	234.701706
2788.201172	252.846207
2786.826172	292.807770
2785.451172	312.752136
2784.076172	292.693298
2782.701172	321.717926
2781.325195	232.609283
2779.949219	297.972351
2778.573242	290.647888
2777.196289	257.899567
2775.819336	294.165894
2774.442383	344.941895
2773.065430	261.378510
2771.687500	308.511475
2770.309570	283.049255
2768.931641	246.712616
2767.553711	333.722351
2766.174805	281.069794
2764.795898	259.258789
2763.416992	266.458618
2762.037109	284.529358
2760.657227	333.395905
2759.277344	286.229553
2757.897461	273.494965
2756.516602	197.384857
2755.135742	238.988068
2753.754883	264.283539
2752.373047	284.139648
2750.991211	276.846191
2749.609375	282.219269
2748.227539	245.989120
2746.844727	274.875153
2745.461914	283.861481
2744.079102	287.421234
2742.696289	233.145126
2741.312500	263.817963
2739.928711	249.313339
2738.544922	314.289978
2737.160156	283.527924
2735.775391	352.083496
2734.390625	249.117935
2733.005859	285.166077
2731.620117	279.696686
2730.234375	257.992157
2728.848633	286.802185
2727.461914	232.642929
2726.076172	299.311279
2724.689453	252.381683
2723.301758	313.612854
2721.915039	264.896820
2720.527344	347.721497
2719.138672	293.613922
2717.750977	268.342896
2716.362305	288.096893
2714.973633	306.042908
2713.584961	307.782745
2712.195313	275.330505
2710.806641	300.465179
2709.416016	298.607361
2708.026367	273.369934
2706.635742	244.546143
2705.245117	249.891479
2703.854492	271.411560
2702.462891	355.820770
2701.072266	327.003357
2699.680664	265.862610
2698.288086	269.402435
2696.896484	335.789063
2695.503906	292.635651
2694.110352	290.783203
2692.717773	247.655563
2691.324219	256.578186
2689.930664	267.291168
2688.537109	256.477356
2687.142578	301.256866
2685.748047	304.783325
2684.353516	306.515930
2682.958984	336.922058
2681.563477	259.809021
2680.167969	304.543793
2678.771484	274.035522
2677.375977	295.470428
2675.979492	297.202698
2674.583008	247.023544
2673.185547	300.665192
2671.789063	284.502167
2670.391602	277.290344
2668.993164	243.252045
2667.595703	266.451660
2666.197266	271.763000
2664.798828	325.336426
2663.400391	282.379333
2662.000977	250.160309
2660.601563	291.200775
2659.202148	303.646576
2657.801758	310.730011
2656.401367	280.316162
2655.000977	249.914261
2653.600586	301.622833
2652.199219	280.150665
2650.797852	244.414551
2649.396484	319.281708
2647.995117	292.468658
2646.592773	290.628052
2645.190430	335.136902
2643.787109	299.425079
2642.384766	281.546692
2640.981445	292.180756
2639.578125	276.092072
2638.173828	322.340759
2636.769531	283.105438
2635.365234	311.532654
2633.960938	300.792236
2632.555664	259.804810
2631.150391	273.986694
2629.745117	311.287140
2628.339844	284.549316
2626.933594	266.712402
2625.527344	309.325378
2624.121094	321.706085
2622.713867	268.331696
2621.306641	323.355896
2619.899414	273.554901
2618.492188	275.276917
2617.083984	280.549530
2615.675781	271.617798
2614.266602	259.139709
2612.858398	324.748047
2611.449219	289.199402
2610.040039	315.750519
2608.629883	319.235291
2607.220703	296.120972
2605.810547	276.561401
2604.399414	326.136261
2602.989258	301.262085
2601.578125	260.451660
2600.166992	301.143158
2598.754883	315.252350
2597.343750	308.107208
2595.930664	315.127899
2594.518555	253.114563
2593.106445	274.300781
2591.693359	348.558594
2590.280273	298.958221
2588.866211	258.220581
2587.452148	312.986420
2586.038086	281.101746
2584.624023	259.835175
2583.208984	286.292389
2581.794922	321.573608
2580.378906	272.046967
2578.963867	294.953674
2577.547852	271.939453
2576.131836	330.146942
2574.715820	335.377106
2573.298828	284.131805
2571.881836	301.720093
2570.464844	301.660431
2569.047852	257.507111
2567.629883	301.541168
2566.211914	333.216431
2564.793945	276.744110
2563.375000	306.649384
2561.956055	276.634644
2560.537109	327.667938
2559.118164	260.673462
2557.698242	316.972565
2556.278320	318.670471
2554.857422	279.881653
2553.437500	299.185333
2552.016602	314.962219
2550.595703	307.863007
2549.173828	335.944000
2547.752930	233.883286
2546.330078	272.516785
2544.908203	256.642426
2543.485352	281.196289
2542.063477	268.840729
2540.639648	289.868866
2539.216797	298.593628
2537.792969	298.534485
2536.369141	291.452423
2534.945313	291.394714
2533.520508	287.826904
2532.095703	310.580902
2530.670898	310.519379
2529.245117	257.837891
2527.819336	348.976685
2526.393555	324.361298
2524.967773	324.296997
2523.541016	317.222321
2522.114258	317.159424
2520.687500	331.111908
2519.260742	280.250793
2517.833008	344.990387
2516.405273	295.897552
2514.976563	320.346252
2513.547852	309.781677
2512.119141	293.971741
2510.690430	342.899017
2509.261719	285.109467
2507.832031	246.579529
2506.402344	262.266602
2504.971680	293.680328
2503.541016	302.360840
2502.110352	255.120941
2500.679688	272.540894
2499.248047	338.861816
2497.816406	281.164551
2496.384766	282.854797
2494.953125	326.440399
2493.520508	253.072006
2492.087891	300.136169
2490.655273	273.907104
2489.221680	228.501328
2487.788086	291.237762
2486.354492	308.615845
2484.919922	350.392487
2483.485352	280.606903
2482.050781	322.372467
2480.616211	297.917511
2479.180664	330.953705
2477.745117	259.485840
2476.309570	306.445862
2474.873047	280.272614
2473.437500	285.438385
2472.000000	323.664551
2470.563477	374.054047
2469.125977	280.049927
2467.688477	281.733337
2466.250977	319.929840
2464.812500	255.545303
2463.374023	269.398956
2461.935547	307.575073
2460.497070	321.412872
2459.057617	297.030670
2457.618164	244.871307
2456.177734	267.394897
2454.738281	310.741364
2453.297852	317.622131
2451.857422	327.970703
2450.416016	258.507477
2448.974609	294.882751
2447.533203	280.950012
2446.091797	284.361938
2444.649414	235.765411
2443.207031	331.045807
2441.764648	270.329163
2440.321289	278.938019
2438.877930	301.400970
2437.434570	308.268341
2435.990234	315.132996
2434.546875	311.607941
2433.101563	325.392365
2431.657227	325.327576
2430.211914	266.438690
2428.766602	316.549133
2427.321289	323.403809
2425.875977	335.443024
2424.429688	299.072601
2422.983398	300.741425
2421.536133	274.760681
2420.089844	274.705933
2418.642578	316.107971
2417.194336	2281.395752
2415.747070	2969.885498
2414.298828	982.283752
2412.849609	312.404083
2411.401367	305.439240
2409.952148	286.400024
2408.502930	293.242767
2407.052734	305.256592
2405.603516	293.125854
2404.152344	243.073547
2402.703125	280.943878
2401.251953	256.762512
2399.800781	342.856018
2398.349609	346.232727
2396.898438	296.219666
2395.445313	316.822937
2393.994141	285.772369
2392.541016	320.138885
2391.087891	277.054169
2389.634766	276.998871
2388.181641	287.264465
2386.728516	300.965576
2385.275391	350.769836
2383.820313	264.743988
2382.365234	268.128662
2380.910156	309.317474
2379.455078	302.383362
2378.000000	322.935913
2376.544922	326.306213
2375.089844	297.051086
2373.632813	302.141907
2372.175781	248.873993
2370.718750	295.157074
2369.261719	293.382446
2367.804688	319.053986
2366.347656	288.120209
2364.888672	310.353210
2363.429688	301.719604
2361.972656	262.237915
2360.513672	253.617371
2359.054688	277.552704
2357.593750	256.941895
2356.134766	270.591339
2354.673828	292.796631
2353.214844	275.618927
2351.753906	282.410126
2350.292969	299.465973
2348.832031	307.960571
2347.369141	313.030609
2345.908203	306.127167
2344.445313	244.510788
2342.984375	275.233307
2341.521484	275.178223
2340.058594	314.426483
2338.593750	336.574066
2337.130859	293.802795
2335.667969	300.575256
2334.203125	341.494446
2332.738281	314.112030
2331.273438	307.221985
2329.808594	377.124817
2328.343750	359.988281
2326.878906	341.152802
2325.412109	306.976044
2323.945313	310.324738
2322.478516	269.348846
2321.011719	269.294891
2319.544922	303.322113
2318.078125	318.594788
2316.611328	316.827606
2315.142578	299.733795
2313.673828	314.997986
2312.205078	299.613708
2310.736328	243.387360
2309.267578	328.422028
2307.798828	301.134949
2306.328125	289.167694
2304.859375	302.714905
2303.388672	341.761230
2301.917969	351.892517
2300.447266	299.133636
2298.974609	310.968658
2297.503906	305.809479
2296.031250	317.638367
2294.560547	293.799011
2293.087891	314.115143
2291.615234	314.052124
2290.142578	315.686371
2288.667969	303.744751
2287.195313	334.221863
2285.720703	323.977509
2284.246094	286.603210
2282.773438	354.367157
2281.296875	313.611328
2279.822266	293.210114
2278.347656	337.208679
2276.871094	323.587585
2275.396484	304.890442
2273.919922	311.603241
2272.443359	345.403778
2270.966797	319.942200
2269.488281	331.725281
2268.011719	331.658661
2266.533203	275.762787
2265.056641	285.856140
2263.578125	312.856598
2262.099609	358.444733
2260.619141	283.993469
2259.140625	278.866119
2257.662109	275.430573
2256.181641	266.928131
2254.701172	298.967010
2253.220703	344.502899
2251.740234	305.600433
2250.259766	271.777802
2248.777344	349.358368
2247.296875	313.853119
2245.814453	330.660431
2244.332031	300.233276
2242.849609	357.509308
2241.367188	352.379364
2239.884766	308.480621
2238.400391	278.082336
2236.917969	316.781616
2235.433594	331.879913
2233.949219	377.290070
2232.464844	277.858643
2230.978516	291.271973
2229.494141	304.679871
2228.009766	297.886658
2226.523438	346.623199
2225.037109	338.141937
2223.550781	292.660980
2222.064453	331.279327
2220.576172	329.531372
2219.089844	312.655579
2217.601563	327.718079
2216.115234	312.529694
2214.626953	352.785065
2213.138672	339.277283
2211.648438	303.944672
2210.160156	302.204529
2208.669922	334.036591
2207.181641	347.395203
2205.691406	315.445129
2204.201172	275.120087
2202.710938	323.704163
2201.218750	306.870056
2199.728516	358.781189
2198.236328	288.308075
2196.744141	303.332825
2195.251953	331.755768
2193.759766	331.688873
2192.267578	323.247711
2190.775391	298.064728
2189.281250	313.072296
2187.787109	313.009155
2186.294922	316.293060
2184.800781	319.575592
2183.304688	342.930817
2181.810547	331.154175
2180.316406	290.955566
2178.820313	309.286896
2177.324219	342.654175
2175.828125	302.477539
2174.332031	334.161865
2172.835938	297.344055
2171.337891	305.634705
2169.841797	312.252228
2168.343750	332.222717
2166.845703	302.111420
2165.347656	312.063171
2163.849609	360.385193
2162.351563	336.958862
2160.851563	265.176422
2159.353516	365.169250
2157.853516	353.425781
2156.353516	356.687927
2154.853516	294.958008
2153.353516	311.559357
2151.851563	301.501862
2150.351563	316.429749
2148.849609	364.653198
2147.347656	359.585297
2145.845703	334.546478
2144.343750	349.455536
2142.839844	341.066193
2141.337891	367.611694
2139.833984	289.373322
2138.330078	334.208496
2136.826172	365.726379
2135.322266	365.652435
2133.818359	415.430115
2132.314453	358.859039
2130.808594	347.159119
2129.302734	355.392487
2127.796875	337.056458
2126.291016	383.469421
2124.785156	368.454498
2123.279297	353.445618
2121.771484	323.511505
2120.263672	353.302612
2118.757813	369.814728
2117.250000	285.180542
2115.740234	412.765015
2114.232422	371.247589
2112.724609	321.461853
2111.214844	354.530457
2109.705078	372.678528
2108.195313	382.539124
2106.685547	316.234558
2105.175781	360.864777
2103.664063	392.236847
2102.154297	367.337311
2100.642578	363.954224
2099.130859	350.648468
2097.619141	365.460449
2096.107422	381.919739
2094.595703	340.517426
2093.082031	358.627716
2091.570313	356.902710
2090.056641	394.826202
2088.542969	365.016327
2087.029297	369.896332
2085.513672	364.868378
2084.000000	346.637238
2082.484375	377.923004
2080.968750	377.846375
2079.455078	371.171173
2077.937500	425.523285
2076.421875	336.392029
2074.906250	359.404846
2073.388672	397.243134
2071.873047	388.922668
2070.355469	392.139038
2068.837891	393.706787
2067.320313	335.982819
2065.800781	378.727295
2064.283203	400.052399
2062.763672	376.927612
2061.244141	299.506134
2059.724609	371.838715
2058.205078	401.372681
2056.685547	345.373566
2055.164063	371.612305
2053.644531	383.044617
2052.123047	351.737793
2050.601563	358.239563
2049.080078	345.023071
2047.558594	359.736694
2046.035156	335.029114
2044.513672	371.084320
2042.990234	356.234253
2041.466797	377.498749
2039.943359	416.805237
2038.419922	356.017151
2036.896484	355.944794
2035.371094	387.031799
2033.847656	347.601959
2032.322266	440.971344
2030.796875	383.517914
2029.271484	385.078583
2027.744141	383.362000
2026.218750	409.491486
2024.691406	389.756622
2023.164063	397.863861
2021.636719	365.043610
2020.109375	356.786194
2018.582031	364.895142
2017.054688	405.720123
2015.525391	345.119080
2013.996094	423.543365
2012.468750	372.773132
2010.939453	390.678284
2009.408203	348.106873
2007.878906	357.839844
2006.347656	356.133392
2004.818359	401.793488
2003.287109	333.126770
2001.755859	336.324219
2000.224609	362.372711
1998.691406	354.139038
1997.160156	332.855560
1995.626953	339.313019
1994.093750	370.232544
1992.560547	352.220001
1991.027344	334.214783
1989.494141	376.526276
1987.960938	366.671661
1986.425781	360.079681
1984.890625	345.345398
1983.355469	351.789673
1981.820313	377.771149
1980.285156	302.806519
1978.750000	333.670349
1977.212891	344.993652
1975.675781	257.065491
1974.138672	346.479645
1972.601563	318.761353
1971.064453	331.704376
1969.527344	336.513733
1967.988281	326.693085
1966.451172	310.376373
1964.912109	334.683197
1963.373047	313.498474
1961.833984	334.546692
1960.292969	347.467865
1958.753906	332.786835
1957.212891	331.095917
1955.671875	329.405670
1954.130859	330.960785
1952.589844	298.452728
1951.048828	350.286041
1949.505859	321.029999
1947.964844	298.269989
1946.421875	332.243835
1944.878906	324.074158
1943.335938	353.168701
1941.792969	304.505310
1940.248047	338.450073
1938.705078	307.619049
1937.160156	312.412354
1935.615234	349.571411
1934.070313	299.340271
1932.525391	299.279114
1930.978516	289.513611
1929.433594	271.666748
1927.886719	339.514038
1926.339844	323.280609
1924.792969	305.437744
1923.246094	357.079071
1921.699219	337.621124
1920.150391	321.401306
1918.601563	329.409332
1917.052734	319.655457
1915.503906	324.432373
1913.955078	332.434845
1912.406250	321.072815
1910.855469	353.269196
1909.306641	340.294769
1907.755859	314.426086
1906.205078	336.931305
1904.654297	314.297455
1903.101563	370.633942
1901.550781	367.335876
1899.998047	286.721069
1898.447266	312.429779
1896.894531	325.246918
1895.339844	336.448975
1893.787109	355.693787
1892.234375	331.483795
1890.679688	328.198303
1889.125000	329.739563
1887.570313	328.063904
1886.015625	336.035858
1884.460938	295.779572
1882.906250	335.898224
1881.349609	345.470428
1879.792969	295.597870
1878.236328	330.873291
1876.679688	309.929413
1875.123047	316.287994
1873.566406	311.407593
1872.007813	330.602173
1870.449219	303.257294
1868.890625	352.925568
1867.332031	325.587280
1865.773438	344.763123
1864.214844	336.676331
1862.654297	355.842010
1861.093750	346.153687
1859.533203	350.889404
1857.972656	334.798370
1856.412109	285.080811
1854.851563	353.876038
1853.289063	305.775818
1851.728516	337.724945
1850.166016	358.459076
1848.603516	319.987091
1847.039063	335.917480
1845.476563	348.642792
1843.914063	326.185913
1842.349609	377.274902
1840.785156	393.180389
1839.220703	308.407471
1837.656250	338.699280
1836.091797	319.462036
1834.525391	338.560211
1832.958984	338.490692
1831.392578	330.439545
1829.826172	352.715668
1828.259766	331.899506
1826.693359	344.594086
1825.125000	306.242920
1823.558594	320.532196
1821.990234	326.843781
1820.421875	277.361603
1818.853516	290.054260
1817.285156	328.235718
1815.714844	320.203003
1814.144531	345.620728
1812.576172	320.071381
1811.005859	345.478668
1809.433594	319.939789
1807.863281	362.842163
1806.292969	338.901245
1804.720703	335.650055
1803.148438	349.894897
1801.576172	353.003143
1800.003906	356.110107
1798.431641	375.110229
1796.857422	314.646393
1795.285156	360.656738
1793.710938	355.817139
1792.136719	319.216644
1790.562500	352.495087
1788.986328	355.597504
1787.412109	347.588501
1785.835938	374.493164
1784.259766	382.348633
1782.683594	375.925171
1781.107422	375.847778
1779.531250	378.941437
1777.955078	359.840973
1776.376953	348.672760
1774.798828	305.818085
1773.220703	346.944916
1771.642578	364.296326
1770.064453	383.224121
1768.484375	324.565125
1766.906250	343.493256
1765.326172	351.335449
1763.746094	338.604919
1762.166016	393.903046
1760.583984	332.138916
1759.003906	335.233032
1757.421875	365.202209
1755.841797	290.837036
1754.259766	363.471313
1752.675781	320.736816
1751.093750	379.118042
1749.511719	361.667206
1747.927734	366.329620
1746.343750	322.050995
1744.759766	347.238251
1743.175781	302.981781
1741.591797	315.540924
1740.005859	329.672211
1738.421875	378.492859
1736.835938	310.615448
1735.250000	342.079407
1733.664063	312.063324
1732.076172	304.120148
1730.490234	371.800751
1728.902344	395.350525
1727.316406	314.955292
1725.728516	385.740570
1724.138672	346.307770
1722.550781	338.367249
1720.962891	405.956848
1719.373047	388.568329
1717.783203	324.002197
1716.193359	349.095306
1714.603516	333.301422
1713.013672	385.103668
1711.421875	348.878967
1709.830078	372.374908
1708.240234	358.160065
1706.648438	353.374390
1705.054688	339.169312
1703.462891	307.701111
1701.871094	351.585724
1700.277344	368.774841
1698.683594	349.871429
1697.089844	412.543335
1695.496094	357.568176
1693.902344	370.037872
1692.306641	407.584534
1690.710938	354.211731
1689.117188	369.808319
1687.521484	361.898499
1685.923828	377.487000
1684.328125	358.616760
1682.730469	385.159241
1681.134766	377.252716
1679.537109	410.040497
1677.939453	397.437897
1676.341797	348.859467
1674.742188	372.248291
1673.144531	392.499908
1671.544922	358.023376
1669.945313	403.279053
1668.345703	378.191193
1666.746094	389.050018
1665.144531	437.395355
1663.544922	426.372131
1661.943359	441.898621
1660.341797	451.174011
1658.740234	493.223022
1657.138672	568.025269
1655.535156	748.889099
1653.933594	795.529785
1652.330078	934.163879
1650.726563	932.411072
1649.123047	989.896851
1647.519531	936.700256
1645.914063	894.433411
1644.310547	813.235962
1642.705078	721.168945
1641.099609	685.202026
1639.494141	725.540771
1637.888672	758.079529
1636.281250	778.154297
1634.675781	732.869324
1633.068359	647.155823
1631.460938	601.916687
1629.853516	468.060303
1628.244141	422.877045
1626.636719	394.810577
1625.027344	408.715088
1623.417969	357.357269
1621.808594	403.885254
1620.199219	374.292847
1618.589844	388.189972
1616.978516	375.689880
1615.369141	366.299194
1613.757813	383.292847
1612.146484	400.279449
1610.535156	362.968750
1608.921875	406.316498
1607.310547	390.727051
1605.697266	323.988068
1604.083984	330.120209
1602.470703	374.988220
1600.857422	343.925964
1599.242188	412.005859
1597.628906	314.360168
1596.013672	315.843109
1594.398438	356.023590
1592.783203	410.115845
1591.167969	346.591888
1589.550781	361.989471
1587.935547	380.473907
1586.318359	351.014709
1584.701172	357.125702
1583.083984	381.782288
1581.466797	329.160767
1579.847656	278.106171
1578.230469	370.731110
1576.611328	381.464722
1574.992188	375.209076
1573.373047	316.468536
1571.751953	316.402679
1570.132813	322.509277
1568.511719	381.067993
1566.890625	360.936646
1565.269531	370.114380
1563.648438	329.949951
1562.027344	365.335785
1560.404297	334.436127
1558.783203	354.397644
1557.160156	383.594086
1555.537109	349.629425
1553.912109	338.777313
1552.289063	317.152679
1550.664063	377.117584
1549.041016	335.487793
1547.416016	353.881256
1545.791016	366.113861
1544.164063	350.657867
1542.539063	349.047119
1540.912109	361.273041
1539.287109	304.328308
1537.660156	336.535400
1536.033203	336.465240
1534.404297	368.652161
1532.777344	324.039124
1531.148438	360.821381
1529.519531	351.535614
1527.890625	366.809998
1526.261719	319.165558
1524.632813	346.713318
1523.001953	366.580505
1521.373047	363.437073
1519.742188	348.029541
1518.111328	370.949677
1516.478516	354.014435
1514.847656	324.828552
1513.214844	327.824554
1511.583984	347.666534
1509.951172	335.343964
1508.318359	355.176086
1506.683594	312.244781
1505.050781	362.679230
1503.416016	315.174377
1501.783203	341.112640
1500.148438	342.570740
1498.511719	308.860901
1496.876953	371.472870
1495.242188	340.827759
1493.605469	394.238525
1491.968750	302.491943
1490.332031	331.449677
1488.695313	364.976593
1487.058594	341.998627
1485.419922	328.188995
1483.781250	358.643219
1482.142578	329.577637
1480.503906	352.391296
1478.865234	350.792450
1477.226563	329.370972
1475.585938	362.842133
1473.945313	320.087891
1472.304688	304.781830
1470.664063	380.897614
1469.023438	359.492157
1467.380859	333.526733
1465.740234	324.321167
1464.097656	354.699615
1462.455078	351.581421
1460.812500	357.594574
1459.167969	331.656586
1457.525391	337.671356
1455.880859	368.015167
1454.236328	334.489197
1452.591797	343.539703
1450.947266	404.258545
1449.302734	300.851257
1447.656250	344.843109
1446.009766	323.507477
1444.363281	311.291748
1442.716797	340.071960
1441.070313	376.429352
1439.421875	350.552307
1437.775391	345.927185
1436.126953	336.753265
1434.478516	323.033417
1432.830078	374.518921
1431.179688	319.866119
1429.531250	341.017975
1427.880859	356.099670
1426.230469	363.600037
1424.580078	298.392456
1422.929688	336.189026
1421.279297	369.427582
1419.626953	308.800934
1417.974609	363.219025
1416.322266	355.577362
1414.669922	346.426117
1413.017578	335.766235
1411.363281	344.768646
1409.710938	350.743622
1408.056641	343.112488
1406.402344	323.395020
1404.748047	359.588135
1403.091797	341.385986
1401.437500	348.865540
1399.781250	344.262543
1398.125000	356.267120
1396.468750	345.627319
1394.812500	350.081665
1393.154297	334.921600
1391.498047	334.851288
1389.839844	310.652588
1388.181641	360.341644
1386.523438	354.236389
1384.865234	321.006409
1383.205078	384.222717
1381.544922	337.442383
1379.884766	343.395966
1378.224609	346.335419
1376.564453	286.043060
1374.904297	332.643311
1373.242188	328.058838
1371.580078	317.458099
1369.919922	371.543427
1368.255859	321.836365
1366.593750	323.272278
1364.931641	321.701019
1363.267578	353.195526
1361.603516	341.100098
1359.939453	347.037689
1358.275391	325.936523
1356.611328	298.837433
1354.945313	324.298035
1353.279297	334.737244
1351.613281	345.172058
1349.947266	307.588623
1348.281250	324.025177
1346.615234	347.953796
1344.947266	313.392395
1343.279297	317.823944
1341.611328	361.223785
1339.943359	326.681366
1338.275391	322.117920
1336.605469	323.548004
1334.935547	347.441345
1333.267578	321.914459
1331.597656	336.816284
1329.925781	365.181610
1328.255859	362.112000
1326.583984	335.107452
1324.912109	345.506744
1323.240234	330.480103
1321.568359	348.351288
1319.896484	330.340820
1318.224609	348.204498
1316.550781	312.272095
1314.876953	322.662933
1313.203125	352.464813
1311.529297	335.965515
1309.853516	322.458893
1308.179688	352.241913
1306.503906	340.229767
1304.828125	317.779175
1303.152344	298.321289
1301.474609	340.014526
1299.798828	301.177399
1298.121094	316.020477
1296.443359	338.309021
1294.765625	347.177826
1293.087891	357.532593
1291.410156	335.116089
1289.730469	394.608978
1288.050781	306.687897
1286.371094	321.507751
1284.691406	340.785797
1283.011719	313.932861
1281.332031	348.079498
1279.650391	374.775696
1277.968750	367.262115
1276.287109	364.211395
1274.605469	367.106995
1272.921875	372.973236
1271.240234	375.865723
1269.556641	362.418396
1267.873047	273.241394
1266.189453	331.086700
1264.505859	360.704315
1262.820313	344.303375
1261.134766	342.746857
1259.451172	336.740631
1257.765625	308.490082
1256.078125	367.737335
1254.392578	363.212067
1252.705078	386.850220
1251.019531	326.011688
1249.332031	305.200928
1247.642578	355.498718
1245.955078	334.690460
1244.267578	337.580902
1242.578125	383.398926
1240.888672	408.477692
1239.199219	334.407318
1237.509766	377.238159
1235.818359	337.223907
1234.128906	322.365143
1232.437500	326.732208
1230.746094	334.053589
1229.054688	370.927887
1227.363281	422.561401
1225.669922	320.546906
1223.976563	369.215454
1222.283203	345.512482
1220.589844	374.964020
1218.896484	391.119781
1217.203125	333.488098
1215.507813	324.565643
1213.812500	379.071381
1212.117188	350.972260
1210.421875	362.692780
1208.726563	358.193756
1207.029297	355.170380
1205.332031	346.254578
1203.636719	332.923157
1201.937500	356.417389
1200.240234	374.011658
1198.542969	347.433228
1196.843750	363.550018
1195.144531	370.830688
1193.445313	351.625946
1191.746094	401.562866
1190.046875	345.594330
1188.345703	371.986481
1186.644531	373.377533
1184.943359	395.343506
1183.242188	368.811005
1181.541016	377.547089
1179.837891	380.404449
1178.136719	384.729004
1176.433594	397.860413
1174.730469	339.063660
1173.027344	321.381714
1171.322266	333.050964
1169.619141	369.652069
1167.914063	400.371368
1166.208984	363.630096
1164.503906	343.029724
1162.796875	400.116333
1161.091797	356.071838
1159.384766	395.551331
1157.677734	357.385254
1155.970703	385.132599
1154.263672	363.089691
1152.554688	402.534058
1150.847656	326.349152
1149.138672	392.121002
1147.429688	383.260681
1145.720703	389.029266
1144.009766	346.542633
1142.300781	396.173340
1140.589844	369.780609
1138.878906	369.701965
1137.167969	390.076813
1135.455078	416.285553
1133.744141	376.767822
1132.031250	389.827942
1130.318359	375.147827
1128.605469	385.283844
1126.892578	325.378845
1125.179688	367.614441
1123.464844	382.121002
1121.750000	352.876312
1120.035156	374.669067
1118.320313	368.759125
1116.605469	324.963531
1114.888672	400.654480
1113.171875	346.674408
1111.455078	403.396484
1109.738281	333.422821
1108.021484	391.579193
1106.302734	369.665161
1104.585938	385.592133
1102.867188	391.329010
1101.148438	408.698975
1099.429688	385.345734
1097.708984	393.986572
1095.990234	404.077209
1094.269531	357.488525
1092.548828	373.394165
1090.828125	379.124908
1089.105469	422.612396
1087.384766	386.223114
1085.662109	364.365906
1083.939453	394.766510
1082.216797	354.053253
1080.492188	364.132843
1078.769531	372.757690
1077.044922	403.130493
1075.320313	361.000275
1073.595703	401.509003
1071.871094	349.252808
1070.146484	370.911377
1068.419922	363.589386
1066.693359	362.063538
1064.966797	379.361603
1063.240234	363.356628
1061.513672	396.567596
1059.785156	380.565735
1058.056641	364.570679
1056.328125	393.420807
1054.599609	352.846252
1052.871094	403.373291
1051.140625	345.468170
1049.412109	372.852509
1047.681641	387.221436
1045.951172	365.470490
1044.218750	342.284576
1042.488281	360.982544
1040.755859	409.988525
1039.023438	359.384949
1037.291016	379.510223
1035.558594	366.444824
1033.826172	402.426178
1032.091797	364.846100
1030.357422	360.442780
1028.623047	331.536438
1026.888672	381.905945
1025.154297	384.705963
1023.417969	357.253479
1021.681641	361.497742
1019.945313	394.538605
1018.208984	348.386566
1016.472656	384.294678
1014.734375	359.749481
1012.998047	349.601654
1011.259766	384.048004
1009.521484	363.832794
1007.783203	345.063934
1006.042969	337.802795
1004.302734	370.784943
1002.564453	353.463440
1000.824219	372.062714
999.082031	349.003387
997.341797	381.954834
995.599609	344.547089
993.859375	355.955719
992.117188	348.704498
990.373047	393.105194
988.630859	375.808380
986.886719	355.650787
985.144531	382.816162
983.400391	382.734131
981.656250	328.192261
979.910156	326.689056
978.166016	363.865051
976.419922	372.380463
974.673828	346.525970
972.927734	366.494324
971.181641	349.239990
969.433594	386.371216
967.687500	341.936707
965.939453	336.141815
964.191406	398.993408
962.441406	394.618469
960.693359	378.809631
958.943359	381.586700
957.195313	380.075958
955.445313	315.709625
953.693359	369.915131
951.943359	358.412231
950.191406	335.493195
948.441406	371.104279
946.689453	378.159698
944.935547	356.677826
943.183594	380.850128
941.431641	345.115875
939.677734	335.061218
937.923828	293.650146
936.169922	322.090668
934.414063	370.467163
932.660156	386.057831
930.904297	304.791962
929.148438	330.357666
927.392578	337.404938
925.636719	321.675629
923.878906	323.029541
922.123047	361.373840
920.365234	345.649475
918.607422	359.796387
916.849609	335.548157
915.089844	329.789978
913.330078	358.143127
911.572266	373.695953
909.812500	332.418427
908.050781	373.535217
906.291016	319.495605
904.529297	339.302307
902.767578	337.809937
901.005859	347.670715
899.244141	309.289398
897.482422	333.336548
895.718750	314.828857
893.957031	314.761108
892.193359	368.559784
890.427734	342.970245
888.664063	307.473206
886.898438	327.239716
885.134766	321.503967
883.369141	348.338959
881.603516	335.522583
879.835938	348.188904
878.070313	319.811951
876.302734	332.476196
874.535156	343.720459
872.767578	319.605286
871.000000	306.811523
869.230469	289.782501
867.460938	325.051758
865.693359	316.503906
863.921875	292.420471
862.152344	306.480988
860.382813	324.771545
858.611328	348.701202
856.839844	307.694214
855.068359	299.161011
853.296875	275.112335
851.523438	299.031982
849.751953	332.812836
847.978516	308.772400
846.205078	314.344238
844.431641	287.499512
842.656250	325.480652
840.880859	280.331909
839.107422	304.214203
837.332031	274.578522
835.554688	297.043915
833.779297	327.944489
832.001953	275.807922
830.226563	279.968994
828.447266	302.413727
826.669922	305.160980
824.892578	312.124908
823.113281	271.293213
821.333984	323.232941
819.554688	306.302429
817.775391	316.069519
815.996094	296.338928
814.214844	329.974396
812.435547	320.076202
810.654297	277.900818
808.871094	326.954010
807.089844	286.198273
805.306641	331.020538
803.525391	293.086182
801.742188	288.816742
799.958984	301.369751
798.173828	313.917328
796.390625	270.414917
794.605469	301.174225
792.820313	282.902496
791.035156	298.243530
789.248047	279.980286
787.462891	286.917694
785.675781	282.657715
783.888672	303.581421
782.101563	304.914398
780.314453	330.019379
778.525391	292.199646
776.736328	282.351929
774.947266	255.738678
773.158203	321.350586
771.369141	294.740387
769.578125	307.245697
767.789063	309.971710
765.998047	269.421539
764.207031	294.485107
762.414063	315.351746
760.623047	301.332825
758.830078	315.215088
757.037109	283.074310
755.244141	287.195435
753.451172	302.465515
751.656250	282.890289
749.863281	259.143768
748.068359	259.087585
746.271484	306.381256
744.476563	275.683319
742.681641	345.225433
740.884766	296.439789
739.087891	294.984070
737.291016	299.093475
735.494141	301.810242
733.695313	280.886841
731.896484	343.386108
730.097656	300.223907
728.298828	282.093658
726.500000	320.933441
724.701172	281.971191
722.900391	298.574615
721.099609	259.634125
719.298828	328.983551
717.496094	287.277679
715.695313	305.252960
713.892578	274.667999
712.089844	289.864380
710.287109	307.827332
708.484375	286.965851
706.679688	309.079620
704.876953	333.955170
703.072266	306.174500
701.267578	332.424957
699.460938	296.347839
697.656250	293.514404
695.849609	303.140015
694.042969	307.225830
692.236328	330.680206
690.429688	312.625427
688.621094	294.578491
686.812500	335.995331
685.005859	284.773621
683.195313	327.556641
681.386719	301.231293
679.578125	342.610596
677.767578	375.684692
675.957031	353.508667
674.146484	338.245209
672.333984	351.974548
670.523438	342.237976
668.710938	358.719788
666.898438	318.639374
665.085938	315.811829
663.273438	366.758331
661.458984	340.487152
659.644531	330.765686
657.830078	395.454498
656.015625	367.816559
654.201172	370.491028
652.384766	414.473999
650.570313	337.289063
648.753906	401.905914
646.935547	400.442261
645.119141	393.476044
643.300781	386.512848
641.484375	437.310669
639.666016	437.215363
637.847656	470.110229
636.027344	461.761993
634.208984	489.141174
632.388672	516.508362
630.568359	519.142517
628.748047	512.163818
626.925781	509.306549
625.105469	524.292908
623.283203	511.828766
621.460938	506.229523
619.636719	582.928467
617.814453	567.717041
615.990234	537.431213
614.167969	519.494812
612.343750	553.641418
610.517578	495.976349
608.693359	512.305725
606.867188	554.648438
605.041016	588.757446
603.214844	569.464172
601.388672	595.343323
599.562500	600.686584
597.734375	607.395386
595.906250	575.805420
594.078125	586.618896
592.250000	608.364563
590.419922	613.698853
588.591797	670.958374
586.761719	683.107666
584.931641	684.324280
583.099609	643.206177
581.269531	619.855164
579.437500	656.575195
577.605469	656.431702
575.773438	638.550659
573.941406	671.150024
572.107422	657.364990
570.273438	659.948242
568.439453	640.718689
566.605469	670.563049
564.771484	622.724121
562.935547	619.863220
561.101563	622.451660
559.265625	526.993652
557.427734	556.830017
555.591797	566.236206
553.753906	528.008545
551.917969	557.825012
550.080078	495.131378
548.240234	470.543793
546.402344	497.633881
544.562500	464.900330
542.724609	443.053558
540.884766	510.894623
539.042969	521.650452
537.203125	463.134979
535.361328	469.822876
533.519531	434.423065
531.677734	480.475220
529.835938	423.376892
527.994141	430.067505
526.150391	398.776428
524.306641	444.795929
522.462891	406.736359
520.619141	409.358154
518.773438	414.689178
516.927734	409.178680
515.082031	417.216553
513.236328	437.439575
511.390625	425.157562
509.542969	410.173523
507.697266	424.971069
505.849609	427.584076
504.000000	427.490234
502.152344	400.346039
500.302734	415.132629
498.455078	438.024292
496.605469	416.302063
494.753906	447.291351
492.904297	430.980713
491.052734	441.692017
489.203125	444.295898
487.351563	500.904510
485.498047	461.648865
483.646484	480.441223
481.792969	454.699799
479.939453	547.678223
478.085938	525.979248
476.232422	497.547974
474.376953	591.803711
472.523438	583.586975
470.667969	579.416321
468.812500	625.093201
466.955078	612.833801
465.099609	659.829773
463.242188	677.186584
461.384766	652.809692
459.527344	713.222778
457.667969	683.466980
455.810547	707.528687
453.951172	665.683777
452.091797	657.470215
450.232422	668.079407
448.371094	698.842773
446.511719	732.279846
444.650391	746.895386
442.789063	717.184143
440.927734	704.941589
439.064453	702.101501
437.201172	718.052795
435.337891	670.929626
433.474609	652.000061
431.611328	655.880310
429.748047	663.781677
427.882813	588.557556
426.017578	674.212402
424.152344	659.322937
422.285156	668.556274
420.419922	618.847595
418.552734	622.728821
416.685547	649.369751
414.818359	619.777222
412.949219	618.302307
411.082031	656.968628
409.212891	630.069275
407.343750	675.403076
405.472656	663.219971
403.603516	697.831604
401.732422	747.130005
399.861328	775.026550
397.990234	786.879211
396.119141	766.670715
394.246094	854.635925
392.375000	891.829468
390.501953	941.019531
388.628906	998.194763
386.753906	937.935913
384.880859	1008.425415
383.005859	1016.204468
381.130859	1002.647095
379.253906	1019.754944
377.378906	878.261658
375.501953	914.043152
373.626953	841.906311
371.748047	776.460449
369.871094	760.310486
367.994141	674.942688
366.115234	674.793579
364.236328	621.418091
362.357422	585.360962
360.478516	559.960266
358.597656	575.793884
356.716797	543.758972
354.835938	483.825256
352.955078	489.033905
351.074219	508.854858
349.191406	466.236481
347.308594	443.557129
345.425781	483.290710
343.542969	416.812439
341.658203	435.300140
339.775391	400.705994
337.890625	397.964264
336.005859	400.528748
334.119141	364.639191
332.234375	361.907196
330.347656	376.406219
328.460938	381.623260
326.574219	380.213989
324.685547	365.560425
322.798828	340.319672
320.910156	344.216064
319.021484	341.492615
317.132813	394.349884
315.242188	330.757172
313.351563	334.652161
311.460938	346.480011
309.570313	322.604584
307.679688	325.176819
305.787109	336.998871
303.896484	340.888031
302.003906	328.923676
300.111328	307.719818
298.216797	363.108124
296.322266	327.384949
294.429688	310.154877
292.535156	324.600800
290.638672	341.678711
288.744141	335.008331
286.847656	301.968079
284.951172	348.043213
283.054688	315.014709
281.158203	325.486908
279.259766	333.319519
277.361328	347.734528
275.462891	348.974274
273.564453	351.530029
271.666016	348.819427
269.765625	311.893799
267.865234	346.033173
265.964844	336.748413
264.064453	376.127594
262.162109	330.024719
260.261719	366.758759
258.359375	391.648193
256.457031	331.118896
254.552734	390.160583
252.650391	412.401398
250.746094	450.389374
248.841797	391.213470
246.937500	434.439209
245.031250	436.967133
243.126953	452.613098
241.220703	431.526428
239.314453	491.752106
237.406250	498.198029
235.500000	488.912018
233.591797	501.907959
231.683594	461.181000
229.775391	561.939392
227.865234	504.192413
225.957031	517.173279
224.046875	530.148376
222.136719	569.291931
220.226563	591.408569
218.314453	582.120056
216.402344	517.906189
214.490234	517.790955
212.578125	533.362854
210.666016	474.430450
208.751953	458.644684
206.839844	496.427887
204.925781	491.092987
203.009766	458.338470
201.095703	462.152954
