#Wave		#Intensity
4001.644531	3232.078369
4000.500000	3323.799561
3999.354492	3244.586182
3998.209961	3254.906250
3997.064453	3201.926025
3995.918945	3325.726074
3994.772461	3364.389160
3993.626953	3239.430176
3992.480469	3312.990967
3991.333984	3209.893311
3990.187500	3311.775391
3989.040039	3295.908936
3987.893555	3216.844482
3986.746094	3181.389404
3985.598633	3265.772217
3984.451172	3225.964600
3983.302734	3168.748779
3982.154297	3220.425537
3981.006836	3324.332031
3979.857422	3214.890137
3978.708984	3277.410645
3977.560547	3281.160645
3976.411133	3234.874023
3975.261719	3208.179443
3974.112305	3127.128662
3972.961914	3213.523926
3971.811523	3295.539551
3970.662109	3301.454590
3969.511719	3326.924561
3968.360352	3278.515381
3967.209961	3308.324463
3966.058594	3236.045898
3964.907227	3148.593506
3963.755859	3260.909424
3962.604492	3262.480713
3961.452148	3355.201904
3960.299805	3261.281738
3959.147461	3286.715820
3957.995117	3236.223633
3956.841797	3331.049561
3955.689453	3354.287842
3954.536133	3247.446289
3953.382813	3242.514404
3952.228516	3337.268799
3951.075195	3308.488770
3949.920898	3195.234863
3948.766602	3240.130371
3947.612305	3170.239746
3946.458008	3152.336182
3945.302734	3208.037598
3944.147461	3144.683838
3942.992188	3185.218994
3941.836914	3212.758057
3940.680664	3231.634766
3939.525391	3163.997314
3938.369141	3213.147461
3937.211914	3273.088867
3936.055664	3201.157715
3934.898438	3204.890869
3933.742188	3171.890625
3932.584961	3290.122803
3931.426758	3267.918457
3930.269531	3165.820557
3929.111328	3266.715576
3927.953125	3203.511719
3926.794922	3198.605469
3925.636719	3182.911133
3924.477539	3275.097900
3923.319336	3270.180664
3922.160156	3153.115967
3921.000000	3197.817871
3919.840820	3173.513916
3918.680664	3220.350830
3917.520508	3124.932129
3916.360352	3303.198975
3915.200195	3063.459717
3914.040039	3168.438232
3912.878906	3221.692871
3911.717773	3162.964600
3910.556641	3216.200439
3909.394531	3271.568848
3908.233398	3193.495605
3907.071289	3141.269775
3905.909180	3250.399902
3904.746094	3282.062256
3903.583984	3167.487793
3902.420898	3229.253174
3901.257813	3245.854492
3900.094727	3142.095459
3898.931641	3180.194336
3897.767578	3076.485596
3896.603516	3166.133789
3895.439453	3148.369141
3894.275391	3235.823486
3893.111328	3265.281982
3891.946289	3146.627441
3890.781250	3216.865234
3889.616211	3124.010742
3888.451172	3204.952637
3887.285156	3277.285156
3886.119141	3139.437500
3884.953125	3160.298340
3883.787109	3234.742432
3882.620117	3189.137451
3881.454102	3156.406494
3880.287109	3207.242676
3879.120117	3275.196289
3877.952148	3113.967529
3876.785156	3145.511719
3875.617188	3164.198730
3874.449219	3101.541016
3873.281250	3225.092773
3872.112305	3222.357666
3870.944336	3146.887695
3869.775391	3052.195557
3868.606445	3132.894775
3867.436523	3230.668701
3866.267578	3118.911377
3865.097656	3255.123047
3863.927734	3081.431641
3862.757813	3082.999023
3861.587891	3114.471436
3860.416992	3124.574707
3859.246094	3213.681641
3858.075195	3202.413086
3856.904297	3058.806641
3855.732422	3171.351563
3854.560547	3117.421387
3853.388672	3044.311035
3852.216797	3244.247559
3851.044922	3068.776611
3849.872070	3151.364502
3848.699219	3184.890381
3847.526367	3152.330811
3846.353516	3168.795898
3845.179688	3072.332764
3844.005859	3169.754395
3842.832031	3096.754639
3841.658203	3057.852295
3840.484375	3125.415771
3839.309570	3086.522217
3838.134766	3037.001709
3836.959961	3121.553955
3835.785156	3137.996094
3834.609375	3260.785156
3833.434570	3066.655029
3832.258789	3248.947266
3831.082031	3118.667480
3829.906250	3156.349121
3828.729492	3104.762695
3827.552734	3110.562256
3826.375977	3080.246338
3825.199219	3132.773926
3824.021484	3223.505615
3822.844727	3159.215088
3821.666992	3069.475342
3820.489258	3028.582520
3819.310547	3089.558350
3818.131836	3067.770752
3816.954102	3107.504639
3815.774414	3113.291504
3814.595703	3093.631592
3813.416992	3139.698242
3812.237305	3166.671631
3811.057617	3119.462646
3809.877930	3161.260986
3808.697266	2997.557373
3807.516602	3056.306641
3806.336914	3095.975342
3805.155273	3197.029053
3803.974609	3039.790039
3802.792969	3223.358398
3801.612305	3074.636719
3800.430664	3097.339111
3799.248047	3155.992920
3798.066406	3009.480957
3796.883789	3093.502686
3795.701172	3179.607422
3794.518555	3170.562988
3793.335938	3076.989258
3792.152344	3040.499023
3790.968750	3137.111816
3789.785156	3149.202881
3788.601563	3140.171875
3787.417969	3190.262207
3786.233398	3084.122070
3785.048828	3068.776123
3783.864258	3123.071533
3782.678711	3133.041260
3781.494141	3069.177979
3780.308594	3106.570801
3779.123047	3046.953125
3777.937500	3107.526367
3776.750977	3012.096924
3775.564453	3005.215820
3774.377930	2996.229736
3773.191406	3162.100098
3772.004883	3060.412109
3770.817383	3083.008789
3769.629883	3107.702393
3768.442383	3138.701904
3767.254883	3108.653320
3766.066406	3141.745117
3764.878906	3107.499023
3763.690430	3125.853760
3762.500977	3074.797852
3761.312500	3078.432129
3760.123047	3063.144043
3758.933594	3188.693359
3757.744141	3122.952148
3756.554688	3061.437256
3755.364258	3081.876709
3754.173828	3104.408691
3752.983398	3129.031982
3751.792969	3050.764404
3750.602539	3039.701172
3749.411133	3146.177734
3748.219727	3076.343994
3747.028320	3109.341309
3745.835938	3131.837891
3744.644531	3053.656006
3743.452148	3120.189209
3742.259766	3144.767334
3741.067383	3064.530029
3739.874023	3179.225586
3738.680664	3130.441406
3737.487305	3215.752441
3736.293945	3223.532715
3735.100586	3042.834229
3733.906250	3086.237793
3732.711914	3102.410889
3731.517578	3141.601074
3730.323242	3128.460938
3729.127930	3138.340088
3727.932617	3100.103027
3726.737305	3195.732910
3725.541992	3046.673096
3724.345703	3090.010254
3723.150391	3162.595215
3721.954102	3099.309814
3720.757813	3244.998291
3719.560547	3100.245361
3718.364258	3218.725586
3717.166992	3159.653076
3715.969727	3192.472168
3714.771484	3074.974365
3713.574219	3182.934814
3712.375977	3263.726563
3711.177734	3104.552979
3709.979492	3126.920898
3708.780273	3153.451660
3707.582031	3202.909912
3706.382813	3181.464844
3705.183594	3162.112305
3703.983398	3169.859375
3702.784180	3154.683350
3701.583984	3245.760010
3700.383789	3184.751465
3699.182617	3202.900635
3697.982422	3281.424316
3696.781250	3197.543457
3695.580078	3238.574463
3694.378906	3210.918457
3693.177734	3264.415039
3691.975586	3259.645996
3690.773438	3335.990967
3689.571289	3239.716309
3688.369141	3311.877930
3687.166016	3327.889648
3685.962891	3275.312988
3684.759766	3226.911621
3683.556641	3344.725586
3682.352539	3256.864258
3681.149414	3368.398438
3679.945313	3336.625488
3678.740234	3387.901123
3677.536133	3349.909668
3676.331055	3411.539063
3675.126953	3406.753174
3673.920898	3437.233154
3672.715820	3463.553711
3671.510742	3444.244873
3670.304688	3626.044678
3669.098633	3610.858154
3667.891602	3448.534424
3666.685547	3481.043457
3665.478516	3536.328613
3664.271484	3456.959961
3663.064453	3541.221191
3661.857422	3546.771484
3660.649414	3552.319824
3659.441406	3640.654785
3658.233398	3584.102783
3657.025391	3585.502441
3655.816406	3657.232910
3654.607422	3594.504150
3653.398438	3738.578857
3652.189453	3733.745605
3650.980469	3706.176758
3649.770508	3750.950684
3648.560547	3723.388428
3647.350586	3710.297607
3646.139648	3662.098389
3644.929688	3779.124512
3643.718750	3801.130127
3642.507813	3771.519287
3641.295898	3710.960205
3640.084961	3782.490967
3638.873047	3827.173584
3637.661133	3801.704834
3636.449219	3722.623047
3635.236328	3773.477295
3634.023438	3803.696289
3632.810547	3891.618164
3631.597656	3843.490967
3630.384766	3793.321045
3629.170898	3980.079102
3627.957031	3851.633545
3626.743164	4013.598633
3625.529297	4016.965820
3624.314453	3933.872803
3623.099609	3867.275879
3621.884766	3845.974609
3620.669922	3834.968262
3619.454102	3918.587646
3618.239258	3961.043457
3617.023438	4030.214111
3615.806641	4035.627197
3614.590820	4086.258545
3613.374023	3945.748535
3612.157227	4039.525879
3610.940430	4005.900635
3609.723633	3996.935059
3608.505859	3994.133301
3607.288086	3878.408691
3606.070313	4115.803711
3604.852539	4041.147461
3603.633789	4075.274658
3602.415039	4045.788818
3601.196289	4131.182617
3599.977539	4023.764893
3598.758789	3994.304688
3597.539063	4048.908691
3596.319336	4201.877441
3595.099609	4145.758789
3593.878906	3995.410156
3592.659180	4146.253906
3591.438477	4139.332520
3590.217773	4097.601074
3588.996094	4119.354492
3587.775391	4036.702148
3586.553711	4095.297852
3585.332031	4309.385254
3584.109375	4218.560059
3582.887695	4176.859375
3581.665039	4174.031250
3580.442383	4218.232422
3579.219727	4221.530273
3577.996094	4290.232422
3576.773438	4215.859863
3575.549805	4245.716797
3574.325195	4249.005859
3573.101563	4323.778320
3571.876953	4294.378906
3570.652344	4313.989746
3569.427734	4347.881836
3568.203125	4296.043945
3566.977539	4274.833008
3565.752930	4427.039063
3564.526367	4371.135742
3563.300781	4372.354980
3562.075195	4438.820313
3560.848633	4331.980957
3559.622070	4461.612305
3558.395508	4462.812500
3557.167969	4327.504395
3555.940430	4516.137695
3554.712891	4421.603027
3553.485352	4304.704590
3552.257813	4458.625000
3551.029297	4453.716797
3549.800781	4477.301758
3548.572266	4519.190918
3547.343750	4502.066895
3546.114258	4545.969238
3544.884766	4504.442871
3543.655273	4601.191895
3542.425781	4604.393066
3541.195313	4526.294434
3539.965820	4564.053223
3538.734375	4475.833008
3537.503906	4572.495117
3536.273438	4551.326172
3535.041992	4649.967773
3533.810547	4600.369629
3532.579102	4680.696777
3531.346680	4756.934570
3530.115234	4620.095215
3528.882813	4657.770996
3527.650391	4833.354492
3526.416992	4664.131348
3525.184570	4829.509277
3523.951172	4828.601074
3522.717773	4793.238281
3521.483398	4838.943359
3520.250000	4783.331543
3519.015625	4760.150391
3517.781250	4728.876465
3516.545898	4898.073242
3515.311523	4929.542969
3514.076172	4871.941406
3512.840820	4915.545898
3511.605469	4756.802734
3510.369141	4897.512695
3509.133789	4997.718262
3507.897461	4928.023926
3506.660156	4957.423340
3505.423828	4960.532715
3504.186523	4983.851074
3502.949219	4938.458984
3501.711914	5022.380371
3500.474609	4924.479980
3499.236328	5163.874023
3497.998047	5150.786621
3496.759766	5081.179199
3495.521484	5076.185547
3494.282227	5214.470703
3493.042969	5050.062500
3491.803711	5073.317871
3490.564453	5140.934570
3489.324219	5117.785156
3488.084961	5136.981934
3486.844727	5174.312012
3485.603516	5169.306641
3484.363281	5198.556641
3483.122070	5151.241699
3481.880859	5114.015625
3480.639648	5121.106934
3479.397461	5249.000977
3478.156250	5147.359375
3476.914063	5230.920898
3475.671875	5227.922363
3474.428711	5210.841309
3473.186523	5290.319824
3471.943359	5188.765137
3470.700195	5328.540527
3469.456055	5327.535645
3468.212891	5260.200195
3466.968750	5293.371582
3465.724609	5461.150391
3464.479492	5423.960449
3463.235352	5348.623047
3461.990234	5361.670898
3460.745117	5372.705566
3459.499023	5484.104004
3458.253906	5432.894531
3457.007813	5451.935059
3455.761719	5416.800293
3454.515625	5397.725586
3453.268555	5442.832520
3452.021484	5638.303223
3450.775391	5430.753906
3449.527344	5475.828613
3448.280273	5478.802246
3447.032227	5501.811035
3445.784180	5426.653809
3444.536133	5655.952637
3443.287109	5550.757813
3442.039063	5583.744629
3440.790039	5554.666504
3439.541016	5481.570313
3438.291016	5532.558594
3437.041992	5573.524902
3435.791992	5566.471680
3434.541992	5613.415039
3433.291016	5490.390137
3432.041016	5593.302246
3430.790039	5488.314941
3429.539063	5687.105957
3428.287109	5604.117188
3427.036133	5469.223633
3425.784180	5584.024414
3424.532227	5604.933105
3423.280273	5593.891602
3422.027344	5680.658691
3420.774414	5513.946777
3419.521484	5634.614746
3418.268555	5366.234863
3417.014648	5542.730957
3415.761719	5378.164551
3414.507813	5478.828613
3413.252930	5599.388184
3411.999023	5616.265625
3410.744141	5607.232910
3409.489258	5520.505371
3408.234375	5557.306641
3406.978516	5683.710449
3405.723633	5587.061523
3404.467773	5480.495117
3403.210938	5527.226563
3401.955078	5603.789551
3400.698242	5453.508789
3399.441406	5579.787109
3398.184570	5483.265625
3396.927734	5551.824219
3395.669922	5588.546875
3394.412109	5567.611816
3393.154297	5568.544922
3391.896484	5452.246094
3390.637695	5473.065918
3389.378906	5499.836426
3388.120117	5550.426758
3386.861328	5475.913086
3385.601563	5590.011230
3384.341797	5479.792969
3383.082031	5540.269043
3381.822266	5402.326172
3380.561523	5341.794922
3379.300781	5491.506836
3378.040039	5488.482910
3376.779297	5477.530762
3375.517578	5466.582031
3374.256836	5457.619141
3372.995117	5412.995605
3371.732422	5370.369141
3370.470703	5353.506348
3369.208008	5504.967285
3367.945313	5214.868652
3366.682617	5435.578125
3365.418945	5367.258789
3364.155273	5253.455078
3362.891602	5402.811523
3361.627930	5360.250000
3360.363281	5410.649902
3359.099609	5275.173828
3357.834961	5396.736328
3356.569336	5330.489746
3355.304688	5357.143555
3354.039063	5340.321289
3352.773438	5357.085938
3351.507813	5304.720703
3350.241211	5327.408691
3348.975586	5352.062500
3347.708984	5364.863281
3346.442383	5261.225586
3345.174805	5301.661133
3343.907227	5257.255371
3342.639648	5384.458496
3341.372070	5235.539551
3340.104492	5331.152832
3338.835938	5131.048828
3337.567383	5374.457520
3336.298828	5251.268555
3335.029297	5260.121582
3333.760742	5268.970703
3332.491211	5378.252441
3331.221680	5284.689941
3329.951172	5151.790527
3328.681641	5142.938965
3327.411133	5267.903320
3326.139648	5363.308105
3324.869141	5181.316406
3323.597656	5125.263672
3322.327148	5285.529785
3321.054688	5093.826172
3319.783203	5226.518066
3318.510742	5142.985352
3317.238281	5177.375000
3315.965820	5032.983887
3314.693359	5081.129395
3313.419922	5174.422363
3312.146484	5238.229004
3310.873047	5186.195313
3309.599609	5096.891602
3308.325195	5095.922363
3307.050781	5049.830078
3305.776367	5156.751465
3304.501953	4959.658691
3303.226563	5272.433594
3301.951172	5167.531250
3300.675781	5139.107910
3299.400391	5191.040039
3298.124023	5144.989258
3296.847656	5061.737305
3295.571289	5041.188965
3294.294922	5065.685059
3293.017578	5098.002441
3291.740234	5134.222168
3290.462891	5054.964355
3289.185547	5145.963867
3287.907227	5101.946289
3286.628906	5126.401367
3285.350586	5129.336426
3284.072266	5157.686523
3282.792969	5058.965332
3281.513672	5063.865234
3280.234375	5160.602051
3278.955078	5073.658203
3277.674805	5082.458008
3276.394531	5081.489746
3275.114258	4963.368652
3273.833984	5042.461914
3272.552734	5215.211426
3271.272461	5017.123047
3269.990234	5115.670898
3268.708984	5048.372559
3267.426758	5125.422852
3266.145508	5223.893066
3264.862305	5090.326172
3263.580078	5116.644531
3262.296875	4977.302246
3261.014648	5040.652344
3259.731445	4967.612305
3258.447266	5019.252930
3257.164063	5096.189453
3255.879883	5093.270508
3254.595703	4954.090332
3253.310547	5085.488770
3252.026367	5086.464355
3250.741211	4935.691895
3249.456055	5035.895996
3248.169922	4990.206055
3246.884766	5102.027344
3245.598633	4941.645996
3244.312500	4884.337402
3243.025391	4984.454590
3241.739258	4975.731934
3240.452148	4883.483887
3239.165039	4880.609375
3237.876953	5040.844727
3236.589844	4985.523438
3235.301758	4916.635254
3234.013672	4925.399902
3232.724609	5025.354492
3231.436523	4966.196777
3230.147461	5050.588867
3228.857422	4797.530762
3227.568359	4978.862305
3226.278320	4851.912598
3224.989258	5037.040527
3223.698242	4848.121582
3222.408203	4901.440430
3221.117188	4906.314453
3219.826172	4829.850098
3218.535156	4856.034180
3217.244141	4841.555176
3215.952148	4875.468750
3214.660156	4853.250488
3213.368164	4877.474121
3212.076172	4847.526367
3210.783203	4796.315430
3209.490234	4870.810059
3208.197266	4784.815430
3206.903320	4801.296387
3205.610352	4730.807617
3204.316406	4785.935059
3203.022461	4856.495605
3201.727539	4629.591797
3200.432617	4729.120605
3199.137695	4622.028809
3197.842773	4758.195801
3196.547852	4651.139160
3195.251953	4584.644043
3193.956055	4550.970703
3192.660156	4442.085449
3191.363281	4576.227539
3190.067383	4621.625488
3188.770508	4587.969727
3187.472656	4509.997559
3186.175781	4528.404297
3184.877930	4539.096680
3183.580078	4399.538574
3182.282227	4373.659668
3180.983398	4453.693359
3179.684570	4514.444824
3178.385742	4388.470703
3177.086914	4395.327637
3175.788086	4346.384766
3174.488281	4389.796875
3173.188477	4373.569336
3171.887695	4230.435059
3170.587891	4433.415527
3169.287109	4259.569336
3167.986328	4422.107910
3166.685547	4127.278320
3165.383789	4211.015137
3164.082031	4315.847168
3162.780273	4315.020020
3161.478516	4054.995850
3160.175781	4192.430664
3158.873047	4183.949707
3157.570313	4129.419434
3156.267578	4136.301758
3154.963867	4187.298340
3153.660156	4111.702148
3152.356445	4116.666016
3151.052734	4016.190674
3149.748047	3984.753662
3148.443359	4143.042480
3147.138672	3987.056885
3145.833984	4066.745850
3144.528320	3811.244385
3143.222656	3908.169434
3141.916992	3823.183350
3140.610352	3906.669922
3139.304688	3892.524170
3137.998047	3830.549561
3136.691406	3772.424561
3135.383789	3830.991943
3134.076172	3690.661377
3132.768555	3741.574219
3131.460938	3738.944336
3130.153320	3740.137695
3128.844727	3813.940430
3127.536133	3669.926270
3126.227539	3755.174072
3124.917969	3662.787598
3123.608398	3545.615479
3122.298828	3607.929932
3120.989258	3523.259033
3119.678711	3629.442871
3118.369141	3617.298340
3117.057617	3635.678223
3115.747070	3556.787598
3114.436523	3426.444580
3113.125000	3408.628662
3111.813477	3440.375977
3110.500977	3466.394043
3109.189453	3416.190186
3107.876953	3426.963135
3106.564453	3473.918457
3105.250977	3383.753418
3103.937500	3337.410889
3102.625000	3374.838623
3101.310547	3549.274414
3099.997070	3451.552734
3098.682617	3433.767578
3097.368164	3334.203369
3096.053711	3344.971924
3094.739258	3226.449951
3093.423828	3305.667236
3092.108398	3244.214111
3090.792969	3220.787842
3089.476563	3256.264404
3088.160156	3238.542969
3086.843750	3194.241211
3085.527344	3174.639404
3084.210938	3193.011719
3082.893555	3211.376953
3081.576172	3284.765625
3080.257813	3086.819824
3078.940430	3150.719482
3077.622070	3146.319824
3076.303711	3140.025635
3074.984375	3105.296875
3073.666016	3070.581299
3072.346680	3052.934570
3071.027344	3040.978516
3069.707031	3072.596191
3068.387695	3142.081055
3067.067383	3029.753662
3065.747070	2974.266113
3064.425781	3066.443604
3063.104492	2948.517822
3061.783203	2957.410400
3060.461914	2936.031006
3059.140625	2956.270752
3057.818359	2917.880127
3056.496094	2894.629395
3055.173828	2964.013184
3053.850586	3006.910645
3052.527344	2864.612061
3051.204102	2867.838379
3049.880859	2869.174316
3048.556641	2891.282959
3047.233398	2860.515381
3045.909180	2810.881836
3044.583984	2908.484619
3043.259766	2830.555176
3041.934570	2856.422607
3040.608398	2814.372803
3039.283203	2859.092529
3037.957031	2809.515869
3036.630859	2816.514648
3035.304688	2804.662109
3033.978516	2794.698486
3032.651367	2831.841553
3031.324219	2842.597656
3029.997070	2772.363281
3028.668945	2796.307617
3027.341797	2776.941162
3026.013672	2665.348877
3024.684570	2764.577393
3023.356445	2799.793701
3022.027344	2628.062256
3020.698242	2762.976318
3019.368164	2758.681885
3018.039063	2692.344482
3016.708984	2659.868408
3015.378906	2695.063477
3014.047852	2739.639648
3012.717773	2650.812744
3011.386719	2764.877686
3010.055664	2649.788574
3008.723633	2622.990234
3007.392578	2637.501221
3006.060547	2661.390869
3004.727539	2561.421875
3003.395508	2707.265625
3002.062500	2629.835693
3000.729492	2606.822266
2999.396484	2533.191406
2998.062500	2684.551270
2996.728516	2680.283691
2995.394531	2593.563232
2994.060547	2645.522461
2992.725586	2613.165771
2991.390625	2637.007813
2990.055664	2677.693115
2988.720703	2576.079102
2987.384766	2616.760010
2986.048828	2582.568115
2984.712891	2568.971191
2983.376953	2637.690186
2982.040039	2553.014404
2980.703125	2556.260254
2979.366211	2662.333740
2978.028320	2474.893066
2976.690430	2590.285400
2975.352539	2582.310059
2974.014648	2593.019043
2972.675781	2525.276123
2971.336914	2494.907959
2969.998047	2503.760498
2968.659180	2577.944580
2967.319336	2564.380859
2965.979492	2500.440186
2964.639648	2451.449463
2963.299805	2514.394043
2961.958984	2495.257813
2960.618164	2474.264404
2959.277344	2540.895996
2957.935547	2547.859131
2956.593750	2476.553467
2955.251953	2366.150146
2953.910156	2559.417725
2952.567383	2452.765381
2951.225586	2506.288818
2949.881836	2476.016602
2948.539063	2516.485352
2947.195313	2460.169189
2945.852539	2418.759277
2944.507813	2516.882324
2943.164063	2458.738525
2941.819336	2450.823730
2940.474609	2403.870117
2939.129883	2440.579590
2937.784180	2408.512939
2936.439453	2497.232666
2935.093750	2519.040771
2933.747070	2516.694824
2932.401367	2499.493652
2931.054688	2419.174316
2929.708008	2376.010986
2928.360352	2392.252930
2927.013672	2451.166016
2925.666016	2400.600586
2924.318359	2363.038330
2922.969727	2358.870605
2921.621094	2404.765381
2920.272461	2385.760986
2918.923828	2427.925537
2917.575195	2445.984375
2916.225586	2428.835693
2914.875977	2528.388184
2913.525391	2418.632813
2912.175781	2373.725098
2910.825195	2463.973877
2909.474609	2308.023193
2908.123047	2318.677734
2906.772461	2377.431885
2905.420898	2302.978760
2904.069336	2341.369141
2902.716797	2438.914551
2901.364258	2368.189941
2900.011719	2328.914551
2898.659180	2450.428955
2897.305664	2309.533203
2895.953125	2382.975098
2894.599609	2334.492188
2893.245117	2409.746826
2891.891602	2431.432617
2890.537109	2331.285156
2889.181641	2347.441162
2887.827148	2391.267334
2886.471680	2276.427490
2885.116211	2327.627930
2883.760742	2258.945801
2882.405273	2341.471924
2881.048828	2390.786133
2879.692383	2379.263428
2878.334961	2371.430176
2876.978516	2308.332275
2875.621094	2396.293701
2874.263672	2327.690918
2872.905273	2439.549316
2871.547852	2337.830078
2870.189453	2418.354980
2868.830078	2434.445068
2867.471680	2330.946045
2866.112305	2407.746094
2864.752930	2350.267578
2863.393555	2393.937988
2862.033203	2323.616211
2860.672852	2372.788330
2859.312500	2326.386719
2857.952148	2303.886719
2856.590820	2299.764404
2855.229492	2233.201904
2853.868164	2344.772461
2852.505859	2344.315674
2851.144531	2307.150146
2849.782227	2387.444336
2848.418945	2295.242676
2847.056641	2243.433105
2845.693359	2457.575439
2844.330078	2321.406006
2842.965820	2341.119873
2841.602539	2225.188232
2840.238281	2268.736572
2838.874023	2367.234375
2837.508789	2370.436523
2836.143555	2241.768799
2834.778320	2342.044922
2833.413086	2303.141602
2832.046875	2297.201172
2830.681641	2307.733643
2829.314453	2294.475342
2827.948242	2345.250244
2826.581055	2352.108643
2825.214844	2313.248047
2823.846680	2395.070313
2822.479492	2272.130859
2821.111328	2233.308350
2819.743164	2263.935303
2818.375000	2378.586426
2817.005859	2286.796387
2815.636719	2326.525635
2814.267578	2216.523438
2812.898438	2338.395508
2811.528320	2253.984863
2810.158203	2350.255615
2808.788086	2349.796875
2807.416992	2269.081055
2806.046875	2286.874512
2804.675781	2282.781250
2803.303711	2306.033936
2801.932617	2241.792725
2800.560547	2286.910645
2799.188477	2299.217041
2797.815430	2242.300537
2796.443359	2265.537842
2795.070313	2225.037109
2793.696289	2149.963379
2792.323242	2286.051270
2790.949219	2296.522949
2789.575195	2272.421875
2788.201172	2244.692139
2786.826172	2304.270020
2785.451172	2287.454590
2784.076172	2261.555664
2782.701172	2312.006836
2781.325195	2264.305908
2779.949219	2289.299805
2778.573242	2268.870117
2777.196289	2230.286377
2775.819336	2231.666016
2774.442383	2356.497803
2773.065430	2279.801270
2771.687500	2241.245117
2770.309570	2286.167236
2768.931641	2289.347900
2767.553711	2192.773438
2766.174805	2224.984619
2764.795898	2280.752197
2763.416992	2216.863281
2762.037109	2287.108643
2760.657227	2250.422363
2759.277344	2317.010254
2757.897461	2338.291260
2756.516602	2223.748779
2755.135742	2255.902588
2753.754883	2307.955566
2752.373047	2256.828857
2750.991211	2234.673584
2749.609375	2252.326904
2748.227539	2269.973145
2746.844727	2171.875488
2745.461914	2196.762451
2744.079102	2304.792969
2742.696289	2309.763428
2741.312500	2247.873779
2739.928711	2285.372314
2738.544922	2205.448730
2737.160156	2248.358398
2735.775391	2219.028809
2734.390625	2178.879395
2733.005859	2297.572266
2731.620117	2188.852051
2730.234375	2202.856201
2728.848633	2236.696289
2727.461914	2232.650635
2726.076172	2284.502197
2724.689453	2282.251465
2723.301758	2272.791992
2721.915039	2153.413086
2720.527344	2280.908936
2719.138672	2260.646973
2717.750977	2206.174805
2716.362305	2205.741943
2714.973633	2246.714844
2713.584961	2226.475098
2712.195313	2310.616943
2710.806641	2225.601318
2709.416016	2212.572754
2708.026367	2235.518799
2706.635742	2233.281738
2705.245117	2227.449951
2703.854492	2237.797363
2702.462891	2249.937500
2701.072266	2289.023438
2699.680664	2198.755615
2698.288086	2261.184326
2696.896484	2154.796143
2695.503906	2254.910400
2694.110352	2250.877441
2692.717773	2248.640625
2691.324219	2180.017334
2689.930664	2217.260986
2688.537109	2267.044678
2687.142578	2184.112061
2685.748047	2269.739502
2684.353516	2202.971191
2682.958984	2233.004639
2681.563477	2200.313477
2680.167969	2248.249756
2678.771484	2253.181152
2677.375977	2276.017578
2675.979492	2187.841553
2674.583008	2217.841797
2673.185547	2161.925781
2671.789063	2145.396729
2670.391602	2230.845459
2668.993164	2237.561035
2667.595703	2194.202637
2666.197266	2224.165527
2664.798828	2295.230469
2663.400391	2291.204590
2662.000977	2151.378662
2660.601563	2284.943359
2659.202148	2302.355469
2657.801758	2162.609619
2656.401367	2176.467529
2655.000977	2199.245605
2653.600586	2197.027832
2652.199219	2248.343018
2650.797852	2194.378906
2649.396484	2252.808838
2647.995117	2273.765381
2646.592773	2191.300049
2645.190430	2212.260010
2643.787109	2297.374512
2642.384766	2263.065186
2640.981445	2303.595947
2639.578125	2162.424316
2638.173828	2256.385254
2636.769531	2225.671631
2635.365234	2173.607666
2633.960938	2164.280273
2632.555664	2302.653564
2631.150391	2204.347412
2629.745117	2296.409912
2628.339844	2315.520020
2626.933594	2192.375732
2625.527344	2174.166260
2624.121094	2264.384277
2622.713867	2255.052490
2621.306641	2179.987305
2619.899414	2255.939697
2618.492188	2239.510986
2617.083984	2237.293701
2615.675781	2188.919922
2614.266602	2220.437012
2612.858398	2180.958252
2611.449219	2148.591797
2610.040039	2034.639648
2608.629883	2211.591064
2607.220703	2173.917969
2605.810547	2155.760742
2604.399414	2229.779541
2602.989258	2206.301758
2601.578125	2189.920166
2600.166992	2127.487793
2598.754883	2219.164063
2597.343750	2229.350342
2595.930664	2218.287842
2594.518555	2203.689697
2593.106445	2169.630615
2591.693359	2167.432861
2590.280273	2232.457275
2588.866211	2129.435547
2587.452148	2217.429199
2586.038086	2165.720947
2584.624023	2207.715332
2583.208984	2207.279053
2581.794922	2219.211182
2580.378906	2238.204590
2578.963867	2191.841309
2577.547852	2180.813232
2576.131836	2145.072266
2574.715820	2144.648438
2573.298828	2144.224365
2571.881836	2265.547363
2570.464844	2157.489502
2569.047852	2178.228027
2567.629883	2255.386963
2566.211914	2172.077637
2564.793945	2180.461426
2563.375000	2222.326660
2561.956055	2206.029297
2560.537109	2249.634277
2559.118164	2168.169189
2557.698242	2127.238037
2556.278320	2267.666016
2554.857422	2193.286377
2553.437500	2171.733398
2552.016602	2178.342041
2550.595703	2327.444336
2549.173828	2165.167725
2547.752930	2168.256348
2546.330078	2188.925293
2544.908203	2197.281006
2543.485352	2235.510498
2542.063477	2152.482910
2540.639648	2162.597412
2539.216797	2185.002686
2537.792969	2303.983887
2536.369141	2280.703125
2534.945313	2262.697510
2533.520508	2230.658447
2532.095703	2205.650879
2530.670898	2289.422607
2529.245117	2190.745117
2527.819336	2242.920654
2526.393555	2228.449707
2524.967773	2229.760986
2523.541016	2281.897461
2522.114258	2288.454346
2520.687500	2214.420166
2519.260742	2282.292480
2517.833008	2201.283936
2516.405273	2190.342285
2514.976563	2291.438477
2513.547852	2227.977783
2512.119141	2232.785400
2510.690430	2207.849854
2509.261719	2200.415527
2507.832031	2203.476563
2506.402344	2306.197754
2504.971680	2207.846924
2503.541016	2203.913330
2502.110352	2205.223633
2500.679688	2203.038818
2499.248047	2253.256348
2497.816406	2189.940186
2496.384766	2241.885986
2494.953125	2319.996338
2493.520508	2242.741455
2492.087891	2203.906982
2490.655273	2301.168701
2489.221680	2194.310547
2487.788086	2228.753662
2486.354492	2282.362305
2484.919922	2240.071289
2483.485352	2223.940430
2482.050781	2160.766846
2480.616211	2212.603760
2479.180664	2271.387695
2477.745117	2196.051270
2476.309570	2272.226318
2474.873047	2193.437988
2473.437500	2243.476074
2472.000000	2201.267090
2470.563477	2195.610107
2469.125977	2198.652832
2467.688477	2281.692383
2466.250977	2202.995117
2464.812500	2251.232422
2463.374023	2156.929932
2461.935547	2259.026123
2460.497070	2189.082275
2459.057617	2207.754150
2457.618164	2195.158447
2456.177734	2198.194580
2454.738281	2237.685059
2453.297852	2292.780518
2451.857422	2224.647949
2450.416016	2165.217041
2448.974609	2270.597168
2447.533203	2157.418457
2446.091797	2217.676270
2444.649414	2238.037842
2443.207031	2213.327393
2441.764648	2257.941650
2440.321289	2200.318604
2438.877930	2199.880615
2437.434570	2220.224854
2435.990234	2218.051514
2434.546875	2210.685303
2433.101563	2256.976807
2431.657227	2202.883057
2430.211914	2275.109375
2428.766602	2272.926514
2427.321289	2113.366211
2425.875977	2176.921387
2424.429688	2231.807617
2422.983398	2184.696289
2421.536133	2246.470947
2420.089844	2282.305176
2418.642578	2202.391602
2417.194336	2271.033691
2415.747070	2203.240723
2414.298828	2183.812012
2412.849609	2178.198730
2411.401367	2205.374756
2409.952148	2191.132813
2408.502930	2157.921631
2407.052734	2221.302246
2405.603516	2243.274902
2404.152344	2185.937988
2402.703125	2213.079346
2401.251953	2260.888672
2399.800781	2198.413574
2398.349609	2261.709473
2396.898438	2252.647217
2395.445313	2214.316895
2393.994141	2210.431885
2392.541016	2240.972168
2391.087891	2237.083252
2389.634766	2214.270508
2388.181641	2217.268799
2386.728516	2197.908447
2385.275391	2233.578369
2383.820313	2133.423828
2382.365234	2261.906006
2380.910156	2129.135254
2379.455078	2199.151611
2378.000000	2222.760986
2376.544922	2220.599854
2375.089844	2204.702881
2373.632813	2264.347412
2372.175781	2215.836670
2370.718750	2261.727051
2369.261719	2189.216309
2367.804688	2168.194824
2366.347656	2191.771729
2364.888672	2174.187012
2363.429688	2105.179932
2361.972656	2111.615234
2360.513672	2123.188721
2359.054688	2112.484619
2357.593750	2173.728271
2356.134766	2125.340820
2354.673828	2191.694092
2353.214844	2240.901611
2351.753906	2226.760986
2350.292969	2180.112305
2348.832031	2174.543701
2347.369141	2097.134033
2345.908203	2098.424805
2344.445313	2200.597168
2342.984375	2153.999756
2341.521484	2170.660645
2340.058594	2166.808594
2338.593750	2227.881104
2337.130859	2094.198975
2335.667969	2093.780029
2334.203125	2149.707520
2332.738281	2253.412354
2331.273438	2169.328613
2329.808594	2160.362061
2328.343750	2173.578369
2326.878906	2072.503174
2325.412109	2053.328613
2323.945313	2168.863037
2322.478516	2098.534424
2321.011719	2111.749268
2319.544922	2159.040039
2318.078125	2105.792236
2316.611328	2038.938965
2315.142578	2106.651855
2313.673828	2034.716675
2312.205078	2105.807617
2310.736328	2122.406006
2309.267578	2087.947266
2307.798828	2135.166016
2306.328125	2131.336182
2304.859375	2115.603027
2303.388672	2118.579590
2301.917969	2259.251953
2300.447266	2119.429932
2298.974609	2054.432129
2297.503906	2084.601318
2296.031250	2116.456787
2294.560547	2136.411377
2293.087891	2151.264160
2291.615234	2140.647217
2290.142578	2153.795654
2288.667969	2175.423340
2287.195313	2091.855713
2285.720703	2091.436035
2284.246094	2067.273926
2282.773438	2119.420898
2281.296875	2083.396484
2279.822266	2154.162354
2278.347656	2111.366943
2276.871094	2166.851074
2275.396484	2139.314697
2273.919922	2088.080322
2272.443359	2152.000977
2270.966797	2148.183350
2269.488281	2064.820557
2268.011719	2025.486816
2266.533203	2014.929321
2265.056641	2094.022949
2263.578125	2049.633545
2262.099609	2062.748047
2260.619141	2097.832764
2259.140625	2154.874512
2257.662109	2039.538086
2256.181641	2098.257813
2254.701172	2050.541992
2253.220703	2191.984131
2251.740234	2135.826416
2250.259766	2137.085205
2248.777344	2134.967773
2247.296875	2191.909668
2245.814453	2110.490967
2244.332031	2138.740479
2242.849609	2074.228516
2241.367188	2146.310547
2239.884766	2078.451416
2238.400391	2147.132813
2236.917969	2072.560547
2235.433594	2137.845703
2233.949219	2058.252197
2232.464844	2081.413818
2230.978516	2084.362549
2229.494141	2126.025879
2228.009766	2086.889648
2226.523438	2131.900879
2225.037109	2077.638184
2223.550781	2122.633057
2222.064453	2117.160889
2220.576172	2073.021240
2219.089844	2101.179932
2217.601563	2166.300537
2216.115234	2118.816895
2214.626953	2141.909180
2213.138672	2072.614746
2211.648438	2053.725586
2210.160156	2182.588379
2208.669922	2103.255615
2207.181641	2124.648926
2205.691406	2156.101074
2204.201172	2165.731934
2202.710938	2126.719482
2201.218750	2149.767334
2199.728516	2087.301758
2198.236328	2115.376709
2196.744141	2098.191650
2195.251953	2148.034668
2193.759766	2130.849854
2192.267578	2133.770020
2190.775391	2061.335449
2189.281250	2159.696533
2187.787109	2135.827148
2186.294922	2100.252686
2184.800781	2109.868164
2183.304688	2101.078613
2181.810547	2097.309814
2180.316406	2120.296875
2178.820313	2108.166504
2177.324219	2164.571533
2175.828125	2150.765625
2174.332031	2152.002441
2172.835938	2191.659424
2171.337891	2152.803955
2169.841797	2055.521240
2168.343750	2133.571045
2166.845703	2119.787354
2165.347656	2141.053711
2163.849609	2123.936768
2162.351563	2173.551514
2160.851563	2121.411377
2159.353516	2100.973877
2157.853516	2222.248047
2156.353516	2238.466797
2154.853516	2141.361816
2153.353516	2225.899902
2151.851563	2115.510254
2150.351563	2073.447510
2148.849609	2064.703125
2147.347656	2164.170654
2145.845703	2048.889160
2144.343750	2135.006836
2142.839844	2151.212646
2141.337891	2057.627441
2139.833984	2123.734131
2138.330078	2174.849365
2136.826172	2119.550781
2135.322266	2060.950195
2133.818359	2085.459229
2132.314453	2139.863281
2130.808594	2167.668213
2129.302734	2110.765625
2127.796875	2133.583984
2126.291016	2106.591797
2124.785156	2071.311768
2123.279297	2122.333008
2121.771484	2115.267578
2120.263672	2119.815674
2118.757813	2101.144775
2117.250000	2118.957764
2115.740234	2085.375000
2114.232422	2166.163330
2112.724609	2082.873779
2111.214844	2158.659668
2109.705078	2151.597168
2108.195313	2118.041260
2106.685547	2145.759033
2105.175781	2125.460449
2103.664063	2154.820068
2102.154297	2073.304688
2100.642578	2074.539063
2099.130859	2117.122803
2097.619141	2141.499023
2096.107422	2124.531738
2094.595703	2219.975342
2093.082031	2130.281738
2091.570313	2119.936035
2090.056641	2152.546143
2088.542969	2084.391846
2087.029297	2140.114502
2085.513672	2090.150879
2084.000000	2111.185791
2082.484375	2168.518799
2080.968750	2189.529053
2079.455078	2170.938965
2077.937500	2096.279541
2076.421875	2104.099121
2074.906250	2158.077881
2073.388672	2157.640137
2071.873047	2130.834717
2070.355469	2163.355225
2068.837891	2126.675537
2067.320313	2134.479004
2065.800781	2153.805664
2064.283203	2186.294678
2062.763672	2103.552246
2061.244141	2124.518799
2059.724609	2150.412354
2058.205078	2107.206543
2056.685547	2108.423340
2055.164063	2084.975098
2053.644531	2130.583008
2052.123047	2144.943115
2050.601563	2105.068115
2049.080078	2144.072021
2047.558594	2171.561279
2046.035156	2277.869629
2044.513672	2180.531006
2042.990234	2096.364746
2041.466797	2197.699219
2039.943359	2092.230957
2038.419922	2254.228271
2036.896484	2135.668701
2035.371094	2230.352783
2033.847656	2147.917725
2032.322266	2152.399170
2030.796875	2106.070557
2029.271484	2151.524170
2027.744141	2159.278320
2026.218750	2117.889893
2024.691406	2130.560303
2023.164063	2175.971436
2021.636719	2090.406738
2020.109375	2121.077637
2018.582031	2169.735107
2017.054688	2133.302490
2015.525391	2163.945557
2013.996094	2135.705322
2012.468750	2210.479248
2010.939453	2205.125488
2009.408203	2212.848389
2007.878906	2070.242432
2006.347656	2184.175781
2004.818359	2185.364502
2003.287109	2132.664551
2001.755859	2112.638672
2000.224609	2170.971680
1998.691406	2103.618652
1997.160156	2095.031982
1995.626953	2146.807373
1994.093750	2118.643555
1992.560547	2129.626465
1991.027344	2178.102051
1989.494141	2229.817871
1987.960938	2141.362549
1986.425781	2155.590088
1984.890625	2161.666748
1983.355469	2087.936768
1981.820313	2141.246094
1980.285156	2147.321533
1978.750000	2163.160400
1977.212891	2167.601563
1975.675781	2141.127686
1974.138672	2090.264648
1972.601563	2107.728027
1971.064453	2193.476318
1969.527344	2103.617188
1967.988281	2095.061523
1966.451172	2052.384033
1964.912109	2123.451172
1963.373047	2152.256348
1961.833984	2182.673584
1960.292969	2146.507080
1958.753906	2147.692627
1957.212891	2212.175049
1955.671875	2077.040527
1954.130859	2136.643799
1952.589844	2142.696045
1951.048828	2139.015137
1949.505859	2196.947754
1947.964844	2128.415771
1946.421875	2131.222656
1944.878906	2156.713379
1943.335938	2174.093506
1941.792969	2112.100586
1940.248047	2123.004883
1938.705078	2096.666504
1937.160156	2169.080566
1935.615234	2171.874268
1934.070313	2150.395752
1932.525391	2130.543945
1930.978516	2089.673584
1929.433594	2212.143555
1927.886719	2137.321777
1926.339844	2175.678711
1924.792969	2115.439209
1923.246094	2152.168945
1921.699219	2116.189941
1920.150391	2109.296875
1918.601563	2189.603271
1917.052734	2071.302734
1915.503906	2203.234863
1913.955078	2096.275879
1912.406250	2021.629395
1910.855469	2082.513672
1909.306641	2085.313477
1907.755859	2168.733643
1906.205078	2158.617432
1904.654297	2259.718018
1903.101563	2188.351807
1901.550781	2187.904053
1899.998047	2079.533203
1898.447266	2129.031982
1896.894531	2157.578613
1895.339844	2107.232910
1893.787109	2169.571045
1892.234375	2077.405762
1890.679688	2075.371582
1889.125000	2071.729736
1887.570313	2100.252197
1886.015625	2082.135986
1884.460938	2097.784424
1882.906250	2097.354980
1881.349609	2190.121826
1879.792969	2152.723633
1878.236328	2126.583496
1876.679688	2124.541992
1875.123047	2075.941162
1873.566406	2184.668701
1872.007813	2166.567627
1870.449219	2206.237061
1868.890625	2189.742676
1867.332031	2102.684326
1865.773438	2042.921997
1864.214844	2106.632080
1862.654297	2056.510498
1861.093750	2096.152832
1859.533203	2124.563232
1857.972656	2068.060791
1856.412109	2152.520264
1854.851563	2176.097412
1853.289063	2138.829834
1851.728516	2123.985840
1850.166016	2112.348145
1848.603516	2195.111328
1847.039063	2153.071289
1845.476563	2211.802734
1843.914063	2177.770752
1842.349609	2182.119629
1840.785156	2160.893799
1839.220703	2184.419922
1837.656250	2123.261230
1836.091797	2135.603760
1834.525391	2143.150146
1832.958984	2157.079834
1831.392578	2174.196533
1829.826172	2132.253906
1828.259766	2144.581543
1826.693359	2137.759521
1825.125000	2181.980713
1823.558594	2119.339844
1821.990234	2146.008301
1820.421875	2167.883789
1818.853516	2141.939209
1817.285156	2222.761230
1815.714844	2169.733643
1814.144531	2167.695068
1812.576172	2156.102783
1811.005859	2122.226074
1809.433594	2132.931885
1807.863281	2180.235840
1806.292969	2140.010254
1804.720703	2160.250000
1803.148438	2137.539795
1801.576172	2135.510010
1800.003906	2187.533447
1798.431641	2166.420654
1796.857422	2137.370605
1795.285156	2140.108643
1793.710938	2128.548828
1792.136719	2086.819336
1790.562500	2135.612061
1788.986328	2101.835205
1787.412109	2118.861572
1785.835938	2129.533203
1784.259766	2162.411377
1782.683594	2111.208496
1781.107422	2121.874756
1779.531250	2159.490479
1777.955078	2122.586182
1776.376953	2107.885254
1774.798828	2135.972900
1773.220703	2167.217529
1771.642578	2166.770996
1770.064453	2167.908447
1768.484375	2230.791504
1766.906250	2065.708252
1765.326172	2123.838623
1763.746094	2099.666992
1762.166016	2153.020264
1760.583984	2201.606445
1759.003906	2118.925781
1757.421875	2123.231934
1755.841797	2099.084473
1754.259766	2074.947266
1752.675781	2140.878662
1751.093750	2121.481445
1749.511719	2103.671143
1747.927734	2169.555664
1746.343750	2147.006592
1744.759766	2083.429443
1743.175781	2166.635254
1741.591797	2159.877441
1740.005859	2165.741455
1738.421875	2163.717529
1736.835938	2090.741455
1735.250000	2143.907715
1733.664063	2201.780273
1732.076172	2191.871094
1730.490234	2129.977051
1728.902344	2187.816162
1727.316406	2085.004150
1725.728516	2155.423828
1724.138672	2125.070313
1722.550781	2170.271729
1720.962891	2180.837891
1719.373047	2158.363525
1717.783203	2142.189453
1716.193359	2159.044434
1714.603516	2201.047119
1713.013672	2128.287109
1711.421875	2171.850098
1709.830078	2102.268555
1708.240234	2134.822510
1706.648438	2161.080811
1705.054688	2182.617188
1703.462891	2163.327148
1701.871094	2173.867188
1700.277344	2134.186279
1698.683594	2199.640137
1697.089844	2142.715576
1695.496094	2154.818604
1693.902344	2176.324463
1692.306641	2238.579590
1690.710938	2128.405029
1689.117188	2104.459961
1687.521484	2238.757568
1685.923828	2158.411133
1684.328125	2173.624756
1682.730469	2209.185791
1681.134766	2233.774414
1679.537109	2208.271484
1677.939453	2279.791504
1676.341797	2237.080811
1674.742188	2263.207031
1673.144531	2300.268311
1671.544922	2288.848145
1669.945313	2285.248047
1668.345703	2198.822266
1666.746094	2157.743164
1665.144531	2197.911621
1663.544922	2206.827148
1661.943359	2147.033936
1660.341797	2215.280029
1658.740234	2239.794434
1657.138672	2170.667969
1655.535156	2198.301514
1653.933594	2165.088867
1652.330078	2256.653076
1650.726563	2192.257324
1649.123047	2145.036377
1647.519531	2155.501709
1645.914063	2159.729492
1644.310547	2177.976807
1642.705078	2182.197998
1641.099609	2113.225342
1639.494141	2173.508301
1637.888672	2179.284180
1636.281250	2209.958252
1634.675781	2156.596436
1633.068359	2181.039551
1631.460938	2161.923096
1629.853516	2184.799805
1628.244141	2237.206055
1626.636719	2213.426270
1625.027344	2152.358887
1623.417969	2162.788330
1621.808594	2135.931641
1620.199219	2208.483154
1618.589844	2183.180420
1616.978516	2190.489502
1615.369141	2137.262695
1613.757813	2150.784912
1612.146484	2116.206055
1610.535156	2104.908447
1608.921875	2115.327148
1607.310547	2156.751465
1605.697266	2170.254883
1604.083984	2110.909424
1602.470703	2132.164307
1600.857422	2162.705811
1599.242188	2108.044922
1597.628906	2154.064209
1596.013672	2152.068115
1594.398438	2109.826904
1592.783203	2092.364502
1591.167969	2195.597656
1589.550781	2096.135498
1587.935547	2180.765137
1586.318359	2107.634521
1584.701172	2082.460205
1583.083984	2114.486328
1581.466797	2144.953857
1579.847656	2050.260498
1578.230469	2117.801514
1576.611328	2138.982422
1574.992188	2052.069336
1573.373047	2102.586182
1571.751953	2126.843506
1570.132813	2050.788574
1568.511719	2119.787109
1566.890625	2100.836426
1565.269531	2089.604004
1563.648438	2161.634766
1562.027344	2138.062256
1560.404297	2082.134521
1558.783203	2038.557007
1557.160156	2044.294556
1555.537109	2068.512451
1553.912109	2094.259766
1552.289063	2116.917236
1550.664063	2044.131226
1549.041016	2123.729980
1547.416016	2061.742920
1545.791016	2145.919434
1544.164063	2037.814331
1542.539063	2054.303711
1540.912109	1972.397095
1539.287109	2048.836426
1537.660156	2072.996582
1536.033203	2046.446045
1534.404297	2003.010010
1532.777344	2110.093506
1531.148438	2048.237061
1529.519531	2052.415283
1527.890625	2062.730713
1526.261719	2065.369385
1524.632813	2023.517090
1523.001953	2145.799805
1521.373047	2038.007813
1519.742188	2080.511475
1518.111328	2112.267090
1516.478516	2021.407104
1514.847656	2054.693848
1513.214844	2087.966553
1511.583984	2038.520630
1509.951172	2033.501343
1508.318359	2062.164551
1506.683594	2006.631958
1505.050781	2163.833008
1503.416016	2099.122559
1501.783203	2019.142212
1500.148438	1983.545776
1498.511719	2065.698242
1496.876953	2100.426758
1495.242188	2064.835449
1493.605469	2049.123535
1491.968750	2024.251587
1490.332031	2022.301270
1488.695313	2008.134766
1487.058594	2006.188354
1485.419922	2010.348389
1483.781250	1991.614502
1482.142578	1995.775757
1480.503906	1999.935059
1478.865234	1930.883545
1477.226563	2009.772949
1475.585938	1959.042603
1473.945313	1989.117554
1472.304688	2003.940674
1470.664063	2029.422485
1469.023438	2077.742676
1467.380859	2034.665405
1465.740234	2022.058716
1464.097656	1988.144653
1462.455078	1993.816650
1460.812500	2016.224609
1459.167969	1954.948364
1457.525391	2045.801636
1455.880859	1972.378784
1454.236328	1984.129150
1452.591797	1971.553101
1450.947266	1960.501953
1449.302734	2040.622314
1447.656250	2006.774170
1446.009766	2036.730225
1444.363281	1974.045288
1442.716797	2061.686279
1441.070313	1985.361328
1439.421875	1994.050659
1437.775391	2023.977417
1436.126953	1965.910889
1434.478516	1956.399536
1432.830078	2010.575317
1431.179688	1952.547729
1429.531250	2033.982788
1427.880859	2048.709717
1426.230469	2016.465210
1424.580078	1944.852417
1422.929688	2017.134155
1421.279297	2046.992188
1419.626953	2042.021851
1417.974609	2052.187500
1416.322266	1971.562988
1414.669922	2074.018311
1413.017578	2032.746948
1411.363281	1911.349121
1409.710938	1933.625488
1408.056641	1930.196777
1406.402344	1987.217041
1404.748047	2003.419678
1403.091797	1999.978149
1401.437500	1964.822754
1399.781250	2009.708130
1398.125000	1986.642090
1396.468750	1879.065552
1394.812500	1932.994019
1393.154297	1899.397705
1391.498047	1972.907471
1389.839844	1904.632202
1388.181641	1988.663696
1386.523438	1884.236206
1384.865234	1966.729370
1383.205078	1969.329712
1381.544922	1943.306519
1379.884766	1911.269653
1378.224609	1956.042236
1376.564453	1899.928101
1374.904297	1952.209839
1373.242188	1960.828613
1371.580078	1862.621338
1369.919922	1899.835449
1368.255859	1983.654907
1366.593750	1902.043823
1364.931641	1930.206177
1363.267578	1950.841675
1361.603516	1920.378540
1359.939453	1925.984009
1358.275391	1910.558838
1356.611328	1869.611084
1354.945313	1879.727417
1353.279297	1891.340454
1351.613281	1904.449341
1349.947266	1865.037354
1348.281250	1893.147095
1346.615234	1838.755859
1344.947266	1886.352295
1343.279297	1972.907104
1341.611328	1917.034180
1339.943359	1928.618896
1338.275391	1820.340820
1336.605469	1974.241943
1334.935547	1930.395996
1333.267578	1907.530396
1331.597656	1872.698486
1329.925781	1887.270508
1328.255859	1853.953613
1326.583984	1817.658691
1324.912109	1859.155396
1323.240234	1914.092896
1321.568359	1889.768433
1319.896484	1889.370117
1318.224609	1839.655518
1316.550781	1915.468018
1314.876953	1924.027222
1313.203125	1892.258179
1311.529297	1848.557007
1309.853516	1786.959717
1308.179688	1859.717896
1306.503906	1929.460815
1304.828125	1908.166992
1303.152344	1891.356934
1301.474609	1929.731567
1299.798828	1911.432739
1298.121094	1869.290894
1296.443359	1888.270996
1294.765625	1893.832764
1293.087891	1851.720947
1291.410156	1906.438110
1289.730469	1876.253906
1288.050781	1884.790527
1286.371094	1860.577271
1284.691406	1913.757813
1283.011719	1896.987671
1281.332031	1862.374146
1279.650391	1878.340088
1277.968750	1840.771240
1276.287109	1871.600586
1274.605469	1831.076050
1272.921875	1851.492554
1271.240234	1952.124634
1269.556641	1870.019531
1267.873047	1918.629639
1266.189453	1829.142700
1264.505859	1920.787720
1262.820313	1850.630615
1261.134766	1859.141968
1259.451172	1846.881470
1257.765625	1874.670410
1256.078125	1849.066284
1254.392578	1804.200439
1252.705078	1839.391357
1251.019531	1824.183594
1249.332031	1881.578613
1247.642578	1795.268433
1245.955078	1839.316650
1244.267578	1828.563232
1242.578125	1805.971802
1240.888672	1812.989746
1239.199219	1842.199707
1237.509766	1791.511353
1235.818359	1819.234253
1234.128906	1767.093384
1232.437500	1861.338623
1230.746094	1816.601196
1229.054688	1864.984009
1227.363281	1824.697021
1225.669922	1864.194336
1223.976563	1828.354980
1222.283203	1870.787720
1220.589844	1774.436157
1218.896484	1779.963989
1217.203125	1769.257690
1215.507813	1830.845337
1213.812500	1831.932495
1212.117188	1818.272217
1210.421875	1847.374146
1208.726563	1783.598633
1207.029297	1802.379150
1205.332031	1868.301270
1203.636719	1810.453857
1201.937500	1785.032471
1200.240234	1862.695801
1198.542969	1819.607910
1196.843750	1807.447144
1195.144531	1837.966431
1193.445313	1844.932739
1191.746094	1797.471802
1190.046875	1813.267334
1188.345703	1815.823242
1186.644531	1899.227539
1184.943359	1854.734253
1183.242188	1794.096680
1181.541016	1808.406494
1179.837891	1834.460083
1178.136719	1854.628784
1176.433594	1876.256836
1174.730469	1820.081909
1173.027344	1780.073120
1171.322266	1853.054443
1169.619141	1826.257202
1167.914063	1875.732544
1166.208984	1834.279175
1164.503906	1896.925049
1162.796875	1827.637573
1161.091797	1863.882324
1159.384766	1872.276367
1157.677734	1844.049438
1155.970703	1909.554810
1154.263672	1859.370605
1152.554688	1876.540527
1150.847656	1861.507324
1149.138672	1913.784546
1147.429688	1856.327515
1145.720703	1914.433594
1144.009766	1968.128174
1142.300781	1852.219971
1140.589844	1864.980469
1138.878906	1920.112183
1137.167969	1845.194824
1135.455078	1852.105591
1133.744141	1953.935425
1132.031250	1917.019043
1130.318359	1937.047241
1128.605469	1973.120361
1126.892578	1848.677124
1125.179688	1868.706787
1123.464844	1938.316040
1121.750000	1918.947266
1120.035156	1989.973755
1118.320313	1871.489014
1116.605469	1945.409546
1114.888672	1949.366089
1113.171875	1934.384888
1111.455078	1877.177124
1109.738281	1972.873047
1108.021484	1944.794800
1106.302734	1921.094604
1104.585938	1980.343018
1102.867188	1955.190308
1101.148438	1931.502563
1099.429688	1919.458008
1097.708984	1983.017212
1095.990234	1936.082153
1094.269531	1938.575928
1092.548828	1929.445313
1090.828125	1962.443604
1089.105469	1873.436279
1087.384766	1906.432129
1085.662109	1935.058838
1083.939453	1946.256958
1082.216797	1895.055542
1080.492188	1945.426880
1078.769531	1908.751465
1077.044922	1908.344360
1075.320313	1858.644043
1073.595703	1966.959351
1071.871094	1879.588745
1070.146484	1860.352295
1068.419922	1796.218506
1066.693359	1869.696167
1064.966797	1741.877930
1063.240234	1915.222412
1061.513672	1839.552490
1059.785156	1849.288940
1058.056641	1886.508545
1056.328125	1870.195313
1054.599609	1835.089722
1052.871094	1906.986938
1051.140625	1840.087891
1049.412109	1786.223755
1047.681641	1804.625244
1045.951172	1795.572388
1044.218750	1741.751953
1042.488281	1783.253784
1040.755859	1787.203491
1039.023438	1752.182129
1037.291016	1815.299805
1035.558594	1819.239868
1033.826172	1808.754272
1032.091797	1855.956177
1030.357422	1769.053101
1028.623047	1732.638306
1026.888672	1768.296631
1025.154297	1762.155029
1023.417969	1694.072876
1021.681641	1778.684082
1019.945313	1828.700928
1018.208984	1752.010132
1016.472656	1804.889526
1014.734375	1729.675537
1012.998047	1716.357178
1011.259766	1787.908936
1009.521484	1778.897827
1007.783203	1825.963379
1006.042969	1733.575195
1004.302734	1769.132813
1002.564453	1758.696045
1000.824219	1741.081055
999.082031	1703.366333
997.341797	1730.284058
995.599609	1794.515991
993.859375	1755.378418
992.117188	1760.742432
990.373047	1754.626465
988.630859	1742.775391
986.886719	1745.270142
985.144531	1789.343018
983.400391	1767.457642
981.656250	1762.779297
979.910156	1705.087646
978.166016	1709.019775
976.419922	1740.162476
974.673828	1691.104004
972.927734	1706.489136
971.181641	1680.359619
969.433594	1708.619385
967.687500	1708.252930
965.939453	1695.012939
964.191406	1676.058350
962.441406	1717.162231
960.693359	1638.172974
958.943359	1674.979736
957.195313	1674.620361
955.445313	1681.403687
953.693359	1686.755859
951.943359	1697.817261
950.191406	1700.308105
948.441406	1667.114624
946.689453	1646.778442
944.935547	1724.894043
943.183594	1664.614624
941.431641	1627.178589
939.677734	1645.364380
937.923828	1682.073608
936.169922	1708.790771
934.414063	1679.926147
932.660156	1713.754883
930.904297	1700.568237
929.148438	1651.788330
927.392578	1675.635498
925.636719	1622.611572
923.878906	1640.762329
922.123047	1693.050781
920.365234	1696.954102
918.607422	1634.015991
916.849609	1723.238892
915.089844	1640.420898
913.330078	1651.437744
911.572266	1646.819824
909.812500	1703.289307
908.050781	1664.575195
906.291016	1655.697266
904.529297	1588.616333
902.767578	1626.597412
901.005859	1619.152100
899.244141	1699.672974
897.482422	1683.704102
895.718750	1630.870239
893.957031	1663.129639
892.193359	1604.652588
890.427734	1656.744629
888.664063	1582.707764
886.898438	1687.197021
885.134766	1641.511475
883.369141	1600.093628
881.603516	1619.568848
879.835938	1698.482544
878.070313	1641.512695
876.302734	1619.937256
874.535156	1659.193848
872.767578	1660.250488
871.000000	1586.371094
869.230469	1646.812744
867.460938	1585.687256
865.693359	1568.389893
863.921875	1616.082275
862.152344	1538.054321
860.382813	1587.144409
858.611328	1585.390503
856.839844	1562.465576
855.068359	1553.661743
853.296875	1547.683350
851.523438	1631.981201
849.751953	1592.142822
847.978516	1639.736572
846.205078	1604.142456
844.431641	1634.801147
842.656250	1702.080688
840.880859	1777.783325
839.107422	1875.987549
837.332031	1850.236816
835.554688	1741.437500
833.779297	1600.312866
832.001953	1514.129150
830.226563	1556.008545
828.447266	1523.321289
826.669922	1590.493408
824.892578	1569.060303
823.113281	1544.825073
821.333984	1623.191528
819.554688	1521.676758
817.775391	1510.109985
815.996094	1554.726074
814.214844	1472.949585
812.435547	1506.323486
810.654297	1569.157104
808.871094	1539.349976
807.089844	1582.508179
805.306641	1566.737061
803.525391	1471.040161
801.742188	1568.863647
799.958984	1543.293457
798.173828	1486.902954
796.390625	1535.620361
794.605469	1508.672852
792.820313	1530.754517
791.035156	1575.229858
789.248047	1565.089722
787.462891	1567.550293
785.675781	1466.461792
783.888672	1606.043701
782.101563	1541.356323
780.314453	1494.875854
778.525391	1515.523560
776.736328	1505.411011
774.947266	1502.290039
773.158203	1471.226807
771.369141	1519.798828
769.578125	1561.366821
767.789063	1568.010010
765.998047	1458.784912
764.207031	1538.021729
762.414063	1520.944214
760.623047	1499.688721
758.830078	1447.757813
757.037109	1515.772339
755.244141	1462.466064
753.451172	1476.087524
751.656250	1461.832031
749.863281	1492.166626
748.068359	1451.447754
746.271484	1426.065430
744.476563	1473.095703
742.681641	1506.185181
740.884766	1397.303101
739.087891	1551.449219
737.291016	1427.301880
735.494141	1407.520630
733.695313	1458.664795
731.896484	1477.811523
730.097656	1458.031860
728.298828	1431.312622
726.500000	1451.841797
724.701172	1476.529053
722.900391	1456.766479
721.099609	1486.995361
719.298828	1418.654785
717.496094	1444.715210
715.695313	1494.352051
713.892578	1435.764526
712.089844	1443.774170
710.287109	1421.274902
708.484375	1429.283936
706.679688	1462.237671
704.876953	1431.434448
703.072266	1411.727661
701.267578	1389.259277
699.460938	1465.121460
697.656250	1442.651001
695.849609	1385.585205
694.042969	1376.980591
692.236328	1427.874390
690.429688	1451.080078
688.621094	1438.317505
686.812500	1422.795044
685.005859	1396.220093
683.195313	1419.412109
681.386719	1374.885864
679.578125	1399.453735
677.767578	1372.906616
675.957031	1364.322510
674.146484	1455.144775
672.333984	1429.982788
670.523438	1425.531616
668.710938	1378.311890
666.898438	1438.705078
665.085938	1376.332764
663.273438	1444.972656
661.458984	1412.952759
659.644531	1436.074341
657.830078	1384.779663
656.015625	1428.560913
654.201172	1381.421875
652.384766	1441.708618
650.570313	1412.484009
648.753906	1456.220703
646.935547	1406.364258
645.119141	1368.911377
643.300781	1441.514160
641.484375	1463.203003
639.666016	1457.384521
637.847656	1461.190552
636.027344	1444.380493
634.208984	1426.203735
632.388672	1392.924194
630.568359	1374.766357
628.748047	1481.567749
626.925781	1416.723389
625.105469	1408.179321
623.283203	1391.405884
621.460938	1432.259155
619.636719	1442.919434
617.814453	1412.436035
615.990234	1446.402832
614.167969	1444.716431
612.343750	1390.955566
610.517578	1449.566284
608.693359	1406.786011
606.867188	1405.109375
605.041016	1425.340576
603.214844	1422.291626
601.388672	1420.612427
599.562500	1438.090088
597.734375	1443.248047
595.906250	1466.183838
594.078125	1387.921265
592.250000	1399.921997
590.419922	1480.258057
588.591797	1438.939209
586.761719	1455.019287
584.931641	1398.698730
583.099609	1437.995972
581.269531	1398.087402
579.437500	1445.557495
577.605469	1412.488159
575.773438	1477.671631
573.941406	1376.403198
572.107422	1453.840332
570.273438	1465.794189
568.439453	1421.850220
566.605469	1465.153076
564.771484	1410.327148
562.935547	1482.222412
561.101563	1483.260132
559.265625	1484.297363
557.427734	1451.297852
555.591797	1448.257935
553.753906	1379.898560
551.917969	1425.855225
550.080078	1439.145508
548.240234	1408.911499
546.402344	1450.752319
544.562500	1379.748047
542.724609	1356.341919
540.884766	1377.785034
539.042969	1393.784790
537.203125	1402.986694
535.361328	1391.816284
533.519531	1390.153809
531.677734	1372.204590
529.835938	1335.265503
527.994141	1315.979370
526.150391	1356.382446
524.306641	1360.153442
522.462891	1331.383667
520.619141	1356.846069
518.773438	1263.040283
516.927734	1318.314087
515.082031	1336.989380
513.236328	1358.364990
511.390625	1377.023071
509.542969	1309.035645
507.697266	1365.591797
505.849609	1288.164673
504.000000	1312.232666
502.152344	1361.988037
500.302734	1322.474609
498.455078	1304.609375
496.605469	1335.410522
494.753906	1327.009399
492.904297	1307.803589
491.052734	1292.658203
489.203125	1332.887695
487.351563	1336.645508
485.498047	1282.357910
483.646484	1284.775391
481.792969	1323.621704
479.939453	1348.961182
478.085938	1336.526855
476.232422	1341.626709
474.376953	1310.326172
472.523438	1293.864990
470.667969	1282.800781
468.812500	1260.963867
466.955078	1326.684204
465.099609	1279.261841
463.242188	1278.980591
461.384766	1265.239380
459.527344	1316.097900
457.667969	1338.680420
455.810547	1298.032715
453.951172	1243.954590
452.091797	1286.705566
450.232422	1317.339600
448.371094	1292.859131
446.511719	1292.574707
444.650391	1266.766846
442.789063	1270.517212
440.927734	1309.177124
439.064453	1271.300415
437.201172	1238.808838
435.337891	1246.587280
433.474609	1222.164673
431.611328	1276.887573
429.748047	1272.583496
427.882813	1265.599854
426.017578	1254.598022
424.152344	1274.422974
422.285156	1270.122925
420.419922	1181.436279
418.552734	1213.316772
416.685547	1225.099609
414.818359	1212.782104
412.949219	1284.783936
411.082031	1280.486694
409.212891	1222.682251
407.343750	1243.811646
405.472656	1234.177490
403.603516	1193.800049
401.732422	1218.931274
399.861328	1211.981201
397.990234	1193.010498
396.119141	1196.754272
394.246094	1233.880615
392.375000	1202.901733
390.501953	1233.336304
388.628906	1207.708862
386.753906	1199.437256
384.880859	1192.503052
383.005859	1241.583130
381.130859	1190.643433
379.253906	1218.373901
377.378906	1170.127075
375.501953	1205.844116
373.626953	1192.256592
371.748047	1259.916992
369.871094	1123.821411
367.994141	1147.535645
366.115234	1169.908447
364.236328	1145.698120
362.357422	1233.249146
360.478516	1193.074463
358.597656	1212.757446
356.716797	1200.524170
354.835938	1198.929688
352.955078	1207.966919
351.074219	1201.056885
349.191406	1202.119629
347.308594	1104.908813
345.425781	1213.537598
343.542969	1160.172119
341.658203	1158.588501
339.775391	1151.697998
337.890625	1159.402588
336.005859	1149.862305
334.119141	1194.690552
332.234375	1144.050903
330.347656	1158.376831
328.460938	1204.498413
326.574219	1169.787354
324.685547	1180.124390
322.798828	1144.109741
320.910156	1122.673950
319.021484	1172.722778
317.132813	1114.236938
315.242188	1143.096802
313.351563	1164.007446
311.460938	1166.394531
309.570313	1147.626099
307.679688	1099.785034
305.787109	1124.651123
303.896484	1138.935913
302.003906	1118.868896
300.111328	1154.279541
298.216797	1110.450684
296.322266	1131.326172
294.429688	1117.877319
292.535156	1078.044067
290.638672	1093.635742
288.744141	1167.253418
286.847656	1102.381348
284.951172	1128.503784
283.054688	1099.256348
281.158203	1102.965820
279.259766	1126.435547
277.361328	1149.894897
275.462891	1153.590332
273.564453	1079.605347
271.666016	1055.672363
269.765625	1169.930664
267.865234	1147.303955
265.964844	1135.210449
264.064453	1134.958496
262.162109	1125.502563
260.261719	1093.703613
258.359375	1143.402466
256.457031	1137.892700
254.552734	1132.385254
252.650391	1162.341553
250.746094	1158.144043
248.841797	1126.379639
246.937500	1156.317017
245.031250	1166.557861
243.126953	1153.179443
241.220703	1151.611572
239.314453	1109.392700
237.406250	1181.253784
235.500000	1154.776123
233.591797	1155.829834
231.683594	1128.059204
229.775391	1206.401367
227.865234	1186.489136
225.957031	1146.946289
224.046875	1123.129150
222.136719	1175.228027
220.226563	1161.882324
218.314453	1183.862061
216.402344	1195.369263
214.490234	1168.952271
212.578125	1162.155762
210.666016	1199.799316
208.751953	1166.865234
206.839844	1191.427002
204.925781	1133.693359
203.009766	1232.682373
201.095703	1159.298950
