Created as New Dataset;
nm;A
700,0;-0,0156
699,0;-0,0159
698,0;-0,0162
697,0;-0,0166
696,0;-0,0170
695,0;-0,0173
694,0;-0,0177
693,0;-0,0181
692,0;-0,0185
691,0;-0,0188
690,0;-0,0192
689,0;-0,0196
688,0;-0,0200
687,0;-0,0204
686,0;-0,0209
685,0;-0,0213
684,0;-0,0217
683,0;-0,0221
682,0;-0,0226
681,0;-0,0231
680,0;-0,0234
679,0;-0,0240
678,0;-0,0243
677,0;-0,0248
676,0;-0,0253
675,0;-0,0257
674,0;-0,0261
673,0;-0,0265
672,0;-0,0271
671,0;-0,0275
670,0;-0,0279
669,0;-0,0284
668,0;-0,0288
667,0;-0,0293
666,0;-0,0297
665,0;-0,0303
664,0;-0,0307
663,0;-0,0311
662,0;-0,0316
661,0;-0,0321
660,0;-0,0326
659,0;-0,0331
658,0;-0,0336
657,0;-0,0340
656,0;-0,0346
655,0;-0,0350
654,0;-0,0355
653,0;-0,0360
652,0;-0,0364
651,0;-0,0369
650,0;-0,0374
649,0;-0,0379
648,0;-0,0383
647,0;-0,0388
646,0;-0,0393
645,0;-0,0397
644,0;-0,0402
643,0;-0,0405
642,0;-0,0410
641,0;-0,0414
640,0;-0,0419
639,0;-0,0423
638,0;-0,0426
637,0;-0,0430
636,0;-0,0435
635,0;-0,0438
634,0;-0,0442
633,0;-0,0446
632,0;-0,0449
631,0;-0,0453
630,0;-0,0457
629,0;-0,0461
628,0;-0,0464
627,0;-0,0468
626,0;-0,0471
625,0;-0,0475
624,0;-0,0479
623,0;-0,0482
622,0;-0,0485
621,0;-0,0489
620,0;-0,0493
619,0;-0,0497
618,0;-0,0501
617,0;-0,0505
616,0;-0,0510
615,0;-0,0514
614,0;-0,0519
613,0;-0,0524
612,0;-0,0530
611,0;-0,0536
610,0;-0,0541
609,0;-0,0548
608,0;-0,0554
607,0;-0,0562
606,0;-0,0569
605,0;-0,0577
604,0;-0,0585
603,0;-0,0593
602,0;-0,0602
601,0;-0,0610
600,0;-0,0619
599,0;-0,0628
598,0;-0,0638
597,0;-0,0648
596,0;-0,0660
595,0;-0,0672
594,0;-0,0687
593,0;-0,0704
592,0;-0,0724
591,0;-0,0748
590,0;-0,0776
589,0;-0,0810
588,0;-0,0849
587,0;-0,0896
586,0;-0,0953
585,0;-0,1019
584,0;-0,1096
583,0;-0,1186
582,0;-0,1289
581,0;-0,1405
580,0;-0,1536
579,0;-0,1677
578,0;-0,1829
577,0;-0,1987
576,0;-0,2150
575,0;-0,2308
574,0;-0,2457
573,0;-0,2597
572,0;-0,2719
571,0;-0,2817
570,0;-0,2894
569,0;-0,2949
568,0;-0,2985
567,0;-0,3004
566,0;-0,3013
565,0;-0,3013
564,0;-0,3010
563,0;-0,3012
562,0;-0,3021
561,0;-0,3046
560,0;-0,3087
559,0;-0,3151
558,0;-0,3246
557,0;-0,3367
556,0;-0,3518
555,0;-0,3694
554,0;-0,3894
553,0;-0,4112
552,0;-0,4336
551,0;-0,4554
550,0;-0,4753
549,0;-0,4932
548,0;-0,5074
547,0;-0,5173
546,0;-0,5226
545,0;-0,5234
544,0;-0,5204
543,0;-0,5140
542,0;-0,5052
541,0;-0,4948
540,0;-0,4843
539,0;-0,4744
538,0;-0,4660
537,0;-0,4601
536,0;-0,4570
535,0;-0,4574
534,0;-0,4614
533,0;-0,4691
532,0;-0,4797
531,0;-0,4927
530,0;-0,5068
529,0;-0,5205
528,0;-0,5325
527,0;-0,5418
526,0;-0,5471
525,0;-0,5481
524,0;-0,5446
523,0;-0,5368
522,0;-0,5254
521,0;-0,5114
520,0;-0,4956
519,0;-0,4793
518,0;-0,4631
517,0;-0,4482
516,0;-0,4353
515,0;-0,4251
514,0;-0,4182
513,0;-0,4142
512,0;-0,4133
511,0;-0,4149
510,0;-0,4180
509,0;-0,4214
508,0;-0,4240
507,0;-0,4249
506,0;-0,4232
505,0;-0,4186
504,0;-0,4108
503,0;-0,4002
502,0;-0,3873
501,0;-0,3729
500,0;-0,3582
499,0;-0,3433
498,0;-0,3296
497,0;-0,3173
496,0;-0,3065
495,0;-0,2979
494,0;-0,2916
493,0;-0,2869
492,0;-0,2839
491,0;-0,2817
490,0;-0,2798
489,0;-0,2776
488,0;-0,2743
487,0;-0,2697
486,0;-0,2633
485,0;-0,2557
484,0;-0,2468
483,0;-0,2371
482,0;-0,2271
481,0;-0,2172
480,0;-0,2082
479,0;-0,1999
478,0;-0,1929
477,0;-0,1871
476,0;-0,1821
475,0;-0,1783
474,0;-0,1752
473,0;-0,1725
472,0;-0,1697
471,0;-0,1667
470,0;-0,1634
469,0;-0,1594
468,0;-0,1547
467,0;-0,1498
466,0;-0,1446
465,0;-0,1395
464,0;-0,1347
463,0;-0,1304
462,0;-0,1266
461,0;-0,1233
460,0;-0,1206
459,0;-0,1183
458,0;-0,1167
457,0;-0,1150
456,0;-0,1136
455,0;-0,1120
454,0;-0,1105
453,0;-0,1086
452,0;-0,1068
451,0;-0,1048
450,0;-0,1028
449,0;-0,1011
448,0;-0,0997
447,0;-0,0984
446,0;-0,0974
445,0;-0,0966
444,0;-0,0961
443,0;-0,0958
442,0;-0,0957
441,0;-0,0955
440,0;-0,0954
439,0;-0,0955
438,0;-0,0954
437,0;-0,0953
436,0;-0,0954
435,0;-0,0954
434,0;-0,0956
433,0;-0,0958
432,0;-0,0962
431,0;-0,0966
430,0;-0,0974
429,0;-0,0981
428,0;-0,0989
427,0;-0,0995
426,0;-0,1003
425,0;-0,1011
424,0;-0,1020
423,0;-0,1029
422,0;-0,1034
421,0;-0,1047
420,0;-0,1056
419,0;-0,1068
418,0;-0,1079
417,0;-0,1091
416,0;-0,1105
415,0;-0,1119
414,0;-0,1135
413,0;-0,1151
412,0;-0,1166
411,0;-0,1185
410,0;-0,1203
409,0;-0,1223
408,0;-0,1244
407,0;-0,1266
406,0;-0,1291
405,0;-0,1315
404,0;-0,1341
403,0;-0,1370
402,0;-0,1402
401,0;-0,1433
400,0;-0,1465
399,0;-0,1500
398,0;-0,1538
397,0;-0,1577
396,0;-0,1617
395,0;-0,1660
394,0;-0,1703
393,0;-0,1748
392,0;-0,1798
391,0;-0,1847
390,0;-0,1900
389,0;-0,1956
388,0;-0,2014
387,0;-0,2071
386,0;-0,2131
385,0;-0,2191
384,0;-0,2262
383,0;-0,2329
382,0;-0,2390
381,0;-0,2453
380,0;-0,2520
379,0;-0,2586
378,0;-0,2653
377,0;-0,2726
376,0;-0,2796
375,0;-0,2865
374,0;-0,2934
373,0;-0,3002
372,0;-0,3066
371,0;-0,3132
370,0;-0,3199
369,0;-0,3266
368,0;-0,3336
367,0;-0,3404
366,0;-0,3473
365,0;-0,3539
364,0;-0,3604
363,0;-0,3663
362,0;-0,3721
361,0;-0,3778
360,0;-0,3832
359,0;-0,3885
358,0;-0,3940
357,0;-0,3991
356,0;-0,4042
355,0;-0,4086
354,0;-0,4128
353,0;-0,4164
352,0;-0,4200
351,0;-0,4231
350,0;-0,4261
349,0;-0,4291
348,0;-0,4319
347,0;-0,4346
346,0;-0,4370
345,0;-0,4389
344,0;-0,4402
343,0;-0,4416
342,0;-0,4427
341,0;-0,4442
340,0;-0,4459
339,0;-0,4482
338,0;-0,4510
337,0;-0,4543
336,0;-0,4578
335,0;-0,4615
334,0;-0,4640
333,0;-0,4661
332,0;-0,4676
331,0;-0,4698
330,0;-0,4739
329,0;-0,4800
328,0;-0,4875
327,0;-0,4948
326,0;-0,5008
325,0;-0,5036
324,0;-0,5045
323,0;-0,5055
322,0;-0,5094
321,0;-0,5169
320,0;-0,5266
319,0;-0,5357
318,0;-0,5414
317,0;-0,5427
316,0;-0,5409
315,0;-0,5398
314,0;-0,5419
313,0;-0,5479
312,0;-0,5554
311,0;-0,5610
310,0;-0,5613
309,0;-0,5573
308,0;-0,5513
307,0;-0,5467
306,0;-0,5458
305,0;-0,5466
304,0;-0,5455
303,0;-0,5402
302,0;-0,5306
301,0;-0,5200
300,0;-0,5110
299,0;-0,5039
298,0;-0,4976
297,0;-0,4892
296,0;-0,4784
295,0;-0,4653
294,0;-0,4530
293,0;-0,4423
292,0;-0,4330
291,0;-0,4232
290,0;-0,4122
289,0;-0,4004
288,0;-0,3894
287,0;-0,3792
286,0;-0,3704
285,0;-0,3622
284,0;-0,3536
283,0;-0,3448
282,0;-0,3367
281,0;-0,3297
280,0;-0,3239
279,0;-0,3184
278,0;-0,3133
277,0;-0,3085
276,0;-0,3046
275,0;-0,3017
274,0;-0,2996
273,0;-0,2980
272,0;-0,2972
271,0;-0,2971
270,0;-0,2976
269,0;-0,2987
268,0;-0,3009
267,0;-0,3034
266,0;-0,3067
265,0;-0,3106
264,0;-0,3151
263,0;-0,3202
262,0;-0,3258
261,0;-0,3317
260,0;-0,3381
259,0;-0,3451
258,0;-0,3524
257,0;-0,3602
256,0;-0,3683
255,0;-0,3767
254,0;-0,3855
253,0;-0,3947
252,0;-0,4044
251,0;-0,4146
250,0;-0,4250
249,0;-0,4357
248,0;-0,4467
247,0;-0,4580
246,0;-0,4695
245,0;-0,4812
244,0;-0,4928
243,0;-0,5042
242,0;-0,5158
241,0;-0,5273
240,0;-0,5381
239,0;-0,5491
238,0;-0,5592
237,0;-0,5692
236,0;-0,5787
235,0;-0,5879
234,0;-0,5966
233,0;-0,6041
232,0;-0,6119
231,0;-0,6191
230,0;-0,6257
229,0;-0,6319
228,0;-0,6377
227,0;-0,6438
226,0;-0,6490
225,0;-0,6543
224,0;-0,6597
223,0;-0,6650
222,0;-0,6704
221,0;-0,6763
220,0;-0,6829
219,0;-0,6904
218,0;-0,6990
217,0;-0,7094
216,0;-0,7213
215,0;-0,7349
214,0;-0,7514
213,0;-0,7707
212,0;-0,7941
211,0;-0,8225
210,0;-0,8583
209,0;-0,9015
208,0;-0,9555
207,0;-1,0217
206,0;-1,1032
205,0;-1,2031
204,0;-1,3233
203,0;-1,4651
202,0;-1,6269
201,0;-1,8091
200,0;-2,0018
