Created as New Dataset;
nm;A
700,0;-0,0000
699,0;-0,0000
698,0;-0,0001
697,0;-0,0001
696,0;-0,0001
695,0;-0,0001
694,0;-0,0001
693,0;-0,0001
692,0;-0,0001
691,0;-0,0001
690,0;-0,0000
689,0;-0,0001
688,0;-0,0001
687,0;-0,0001
686,0;-0,0001
685,0;-0,0001
684,0;-0,0001
683,0;-0,0000
682,0;0,0000
681,0;-0,0001
680,0;0,0001
679,0;-0,0001
678,0;-0,0000
677,0;-0,0001
676,0;-0,0001
675,0;-0,0001
674,0;-0,0000
673,0;-0,0000
672,0;-0,0001
671,0;-0,0001
670,0;-0,0000
669,0;-0,0001
668,0;-0,0001
667,0;-0,0001
666,0;-0,0000
665,0;-0,0001
664,0;0,0000
663,0;-0,0001
662,0;0,0000
661,0;-0,0001
660,0;-0,0000
659,0;-0,0001
658,0;-0,0000
657,0;-0,0001
656,0;-0,0001
655,0;-0,0000
654,0;-0,0001
653,0;-0,0000
652,0;-0,0001
651,0;-0,0001
650,0;-0,0001
649,0;-0,0001
648,0;-0,0001
647,0;-0,0001
646,0;-0,0001
645,0;-0,0000
644,0;-0,0001
643,0;-0,0001
642,0;-0,0001
641,0;-0,0001
640,0;-0,0000
639,0;-0,0001
638,0;-0,0001
637,0;-0,0001
636,0;-0,0001
635,0;-0,0001
634,0;-0,0001
633,0;-0,0001
632,0;-0,0001
631,0;-0,0001
630,0;-0,0001
629,0;-0,0001
628,0;-0,0001
627,0;-0,0001
626,0;-0,0001
625,0;-0,0001
624,0;-0,0001
623,0;-0,0001
622,0;-0,0001
621,0;-0,0001
620,0;-0,0001
619,0;-0,0001
618,0;-0,0001
617,0;-0,0001
616,0;-0,0001
615,0;-0,0001
614,0;-0,0001
613,0;-0,0001
612,0;-0,0002
611,0;-0,0001
610,0;-0,0001
609,0;-0,0001
608,0;-0,0001
607,0;-0,0001
606,0;-0,0001
605,0;-0,0000
604,0;-0,0001
603,0;-0,0001
602,0;-0,0001
601,0;-0,0001
600,0;-0,0001
599,0;-0,0002
598,0;-0,0000
597,0;-0,0001
596,0;-0,0001
595,0;-0,0001
594,0;-0,0001
593,0;-0,0001
592,0;-0,0001
591,0;-0,0001
590,0;-0,0001
589,0;-0,0000
588,0;-0,0001
587,0;-0,0001
586,0;-0,0001
585,0;-0,0001
584,0;-0,0000
583,0;-0,0001
582,0;-0,0001
581,0;-0,0001
580,0;-0,0001
579,0;-0,0002
578,0;-0,0001
577,0;-0,0001
576,0;-0,0002
575,0;-0,0002
574,0;-0,0001
573,0;-0,0001
572,0;-0,0002
571,0;-0,0002
570,0;-0,0002
569,0;-0,0001
568,0;-0,0002
567,0;-0,0001
566,0;-0,0001
565,0;-0,0002
564,0;-0,0001
563,0;-0,0002
562,0;-0,0002
561,0;-0,0002
560,0;-0,0002
559,0;-0,0001
558,0;-0,0002
557,0;-0,0001
556,0;-0,0002
555,0;-0,0002
554,0;-0,0002
553,0;-0,0001
552,0;-0,0002
551,0;-0,0002
550,0;-0,0001
549,0;-0,0001
548,0;-0,0002
547,0;-0,0002
546,0;-0,0002
545,0;-0,0002
544,0;-0,0002
543,0;-0,0001
542,0;-0,0002
541,0;-0,0002
540,0;-0,0002
539,0;-0,0002
538,0;-0,0001
537,0;-0,0002
536,0;-0,0002
535,0;-0,0002
534,0;-0,0002
533,0;-0,0002
532,0;-0,0002
531,0;-0,0002
530,0;-0,0003
529,0;-0,0002
528,0;-0,0001
527,0;-0,0002
526,0;-0,0002
525,0;-0,0002
524,0;-0,0002
523,0;-0,0002
522,0;-0,0002
521,0;-0,0003
520,0;-0,0001
519,0;-0,0003
518,0;-0,0003
517,0;-0,0002
516,0;-0,0002
515,0;-0,0002
514,0;-0,0003
513,0;-0,0002
512,0;-0,0002
511,0;-0,0002
510,0;-0,0002
509,0;-0,0003
508,0;-0,0002
507,0;-0,0003
506,0;-0,0003
505,0;-0,0003
504,0;-0,0003
503,0;-0,0003
502,0;-0,0003
501,0;-0,0002
500,0;-0,0003
499,0;-0,0001
498,0;-0,0002
497,0;-0,0003
496,0;-0,0002
495,0;-0,0003
494,0;-0,0003
493,0;-0,0002
492,0;-0,0002
491,0;-0,0002
490,0;-0,0002
489,0;-0,0003
488,0;-0,0003
487,0;-0,0002
486,0;-0,0002
485,0;-0,0003
484,0;-0,0002
483,0;-0,0002
482,0;-0,0003
481,0;-0,0003
480,0;-0,0003
479,0;-0,0001
478,0;-0,0003
477,0;-0,0002
476,0;-0,0003
475,0;-0,0002
474,0;-0,0003
473,0;-0,0002
472,0;-0,0002
471,0;-0,0003
470,0;-0,0002
469,0;-0,0003
468,0;-0,0003
467,0;-0,0003
466,0;-0,0003
465,0;-0,0002
464,0;-0,0001
463,0;-0,0003
462,0;-0,0002
461,0;-0,0002
460,0;-0,0002
459,0;-0,0002
458,0;-0,0003
457,0;-0,0002
456,0;-0,0003
455,0;-0,0002
454,0;-0,0003
453,0;-0,0002
452,0;-0,0002
451,0;-0,0002
450,0;-0,0002
449,0;-0,0003
448,0;-0,0003
447,0;-0,0003
446,0;-0,0003
445,0;-0,0003
444,0;-0,0002
443,0;-0,0003
442,0;-0,0003
441,0;-0,0003
440,0;-0,0002
439,0;-0,0003
438,0;-0,0004
437,0;-0,0003
436,0;-0,0003
435,0;-0,0002
434,0;-0,0003
433,0;-0,0002
432,0;-0,0003
431,0;-0,0003
430,0;-0,0004
429,0;-0,0004
428,0;-0,0004
427,0;-0,0004
426,0;-0,0003
425,0;-0,0005
424,0;-0,0004
423,0;-0,0006
422,0;-0,0003
421,0;-0,0004
420,0;-0,0002
419,0;-0,0003
418,0;-0,0003
417,0;-0,0004
416,0;-0,0003
415,0;-0,0003
414,0;-0,0004
413,0;-0,0004
412,0;-0,0002
411,0;-0,0003
410,0;-0,0003
409,0;-0,0004
408,0;-0,0003
407,0;-0,0003
406,0;-0,0003
405,0;-0,0003
404,0;-0,0003
403,0;-0,0002
402,0;-0,0004
401,0;-0,0004
400,0;-0,0003
399,0;-0,0003
398,0;-0,0002
397,0;-0,0003
396,0;-0,0003
395,0;-0,0005
394,0;-0,0003
393,0;-0,0002
392,0;-0,0003
391,0;-0,0003
390,0;-0,0003
389,0;-0,0004
388,0;-0,0004
387,0;-0,0002
386,0;-0,0003
385,0;-0,0003
384,0;-0,0005
383,0;-0,0009
382,0;-0,0007
381,0;-0,0007
380,0;-0,0006
379,0;-0,0005
378,0;-0,0005
377,0;-0,0005
376,0;-0,0005
375,0;-0,0005
374,0;-0,0005
373,0;-0,0005
372,0;-0,0003
371,0;-0,0004
370,0;-0,0004
369,0;-0,0005
368,0;-0,0004
367,0;-0,0006
366,0;-0,0005
365,0;-0,0005
364,0;-0,0004
363,0;-0,0006
362,0;-0,0005
361,0;-0,0006
360,0;-0,0006
359,0;-0,0005
358,0;-0,0005
357,0;-0,0003
356,0;-0,0005
355,0;-0,0005
354,0;-0,0006
353,0;-0,0006
352,0;-0,0006
351,0;-0,0007
350,0;-0,0005
349,0;-0,0006
348,0;-0,0006
347,0;-0,0005
346,0;-0,0007
345,0;-0,0006
344,0;-0,0007
343,0;-0,0007
342,0;-0,0006
341,0;-0,0007
340,0;-0,0007
339,0;-0,0007
338,0;-0,0008
337,0;-0,0007
336,0;-0,0006
335,0;-0,0008
334,0;-0,0008
333,0;-0,0009
332,0;-0,0008
331,0;-0,0011
330,0;-0,0010
329,0;-0,0008
328,0;-0,0009
327,0;-0,0008
326,0;-0,0008
325,0;-0,0009
324,0;-0,0007
323,0;-0,0009
322,0;-0,0008
321,0;-0,0008
320,0;-0,0008
319,0;-0,0008
318,0;-0,0007
317,0;-0,0009
316,0;-0,0007
315,0;-0,0007
314,0;-0,0008
313,0;-0,0009
312,0;-0,0008
311,0;-0,0008
310,0;-0,0008
309,0;-0,0008
308,0;-0,0008
307,0;-0,0008
306,0;-0,0007
305,0;-0,0009
304,0;-0,0008
303,0;-0,0009
302,0;-0,0008
301,0;-0,0007
300,0;-0,0008
299,0;-0,0007
298,0;-0,0008
297,0;-0,0007
296,0;-0,0007
295,0;-0,0009
294,0;-0,0008
293,0;-0,0008
292,0;-0,0009
291,0;-0,0007
290,0;-0,0008
289,0;-0,0008
288,0;-0,0009
287,0;-0,0009
286,0;-0,0009
285,0;-0,0010
284,0;-0,0009
283,0;-0,0009
282,0;-0,0009
281,0;-0,0009
280,0;-0,0009
279,0;-0,0008
278,0;-0,0010
277,0;-0,0009
276,0;-0,0009
275,0;-0,0010
274,0;-0,0009
273,0;-0,0009
272,0;-0,0008
271,0;-0,0010
270,0;-0,0010
269,0;-0,0007
268,0;-0,0010
267,0;-0,0008
266,0;-0,0010
265,0;-0,0007
264,0;-0,0009
263,0;-0,0010
262,0;-0,0008
261,0;-0,0008
260,0;-0,0009
259,0;-0,0008
258,0;-0,0008
257,0;-0,0008
256,0;-0,0008
255,0;-0,0009
254,0;-0,0008
253,0;-0,0007
252,0;-0,0009
251,0;-0,0009
250,0;-0,0008
249,0;-0,0008
248,0;-0,0009
247,0;-0,0009
246,0;-0,0008
245,0;-0,0009
244,0;-0,0009
243,0;-0,0008
242,0;-0,0009
241,0;-0,0010
240,0;-0,0009
239,0;-0,0010
238,0;-0,0007
237,0;-0,0010
236,0;-0,0009
235,0;-0,0010
234,0;-0,0010
233,0;-0,0008
232,0;-0,0009
231,0;-0,0011
230,0;-0,0011
229,0;-0,0011
228,0;-0,0010
227,0;-0,0013
226,0;-0,0011
225,0;-0,0011
224,0;-0,0011
223,0;-0,0012
222,0;-0,0012
221,0;-0,0009
220,0;-0,0010
219,0;-0,0010
218,0;-0,0011
217,0;-0,0010
216,0;-0,0011
215,0;-0,0011
214,0;-0,0012
213,0;-0,0011
212,0;-0,0012
211,0;-0,0011
210,0;-0,0011
209,0;-0,0011
208,0;-0,0014
207,0;-0,0015
206,0;-0,0014
205,0;-0,0015
204,0;-0,0017
203,0;-0,0017
202,0;-0,0019
201,0;-0,0018
200,0;-0,0021
