Created as New Dataset;
nm;A
700,0;-0,0554
699,0;-0,0552
698,0;-0,0551
697,0;-0,0551
696,0;-0,0550
695,0;-0,0550
694,0;-0,0550
693,0;-0,0550
692,0;-0,0551
691,0;-0,0552
690,0;-0,0555
689,0;-0,0557
688,0;-0,0559
687,0;-0,0562
686,0;-0,0563
685,0;-0,0566
684,0;-0,0567
683,0;-0,0567
682,0;-0,0566
681,0;-0,0564
680,0;-0,0563
679,0;-0,0563
678,0;-0,0561
677,0;-0,0559
676,0;-0,0556
675,0;-0,0554
674,0;-0,0551
673,0;-0,0549
672,0;-0,0549
671,0;-0,0547
670,0;-0,0545
669,0;-0,0544
668,0;-0,0544
667,0;-0,0544
666,0;-0,0544
665,0;-0,0544
664,0;-0,0544
663,0;-0,0545
662,0;-0,0545
661,0;-0,0546
660,0;-0,0546
659,0;-0,0547
658,0;-0,0546
657,0;-0,0547
656,0;-0,0547
655,0;-0,0546
654,0;-0,0547
653,0;-0,0546
652,0;-0,0545
651,0;-0,0545
650,0;-0,0544
649,0;-0,0543
648,0;-0,0542
647,0;-0,0541
646,0;-0,0541
645,0;-0,0540
644,0;-0,0539
643,0;-0,0538
642,0;-0,0538
641,0;-0,0538
640,0;-0,0537
639,0;-0,0537
638,0;-0,0536
637,0;-0,0535
636,0;-0,0534
635,0;-0,0533
634,0;-0,0533
633,0;-0,0531
632,0;-0,0530
631,0;-0,0530
630,0;-0,0528
629,0;-0,0527
628,0;-0,0526
627,0;-0,0525
626,0;-0,0524
625,0;-0,0522
624,0;-0,0521
623,0;-0,0518
622,0;-0,0517
621,0;-0,0514
620,0;-0,0513
619,0;-0,0511
618,0;-0,0510
617,0;-0,0509
616,0;-0,0508
615,0;-0,0507
614,0;-0,0506
613,0;-0,0507
612,0;-0,0507
611,0;-0,0507
610,0;-0,0506
609,0;-0,0506
608,0;-0,0505
607,0;-0,0504
606,0;-0,0504
605,0;-0,0503
604,0;-0,0502
603,0;-0,0502
602,0;-0,0503
601,0;-0,0503
600,0;-0,0503
599,0;-0,0504
598,0;-0,0505
597,0;-0,0505
596,0;-0,0506
595,0;-0,0506
594,0;-0,0506
593,0;-0,0506
592,0;-0,0506
591,0;-0,0506
590,0;-0,0506
589,0;-0,0506
588,0;-0,0506
587,0;-0,0506
586,0;-0,0505
585,0;-0,0504
584,0;-0,0503
583,0;-0,0503
582,0;-0,0502
581,0;-0,0501
580,0;-0,0499
579,0;-0,0499
578,0;-0,0497
577,0;-0,0495
576,0;-0,0494
575,0;-0,0493
574,0;-0,0490
573,0;-0,0488
572,0;-0,0487
571,0;-0,0486
570,0;-0,0484
569,0;-0,0481
568,0;-0,0480
567,0;-0,0478
566,0;-0,0477
565,0;-0,0475
564,0;-0,0474
563,0;-0,0473
562,0;-0,0472
561,0;-0,0470
560,0;-0,0470
559,0;-0,0469
558,0;-0,0468
557,0;-0,0468
556,0;-0,0466
555,0;-0,0466
554,0;-0,0466
553,0;-0,0465
552,0;-0,0464
551,0;-0,0464
550,0;-0,0463
549,0;-0,0463
548,0;-0,0463
547,0;-0,0462
546,0;-0,0462
545,0;-0,0462
544,0;-0,0462
543,0;-0,0462
542,0;-0,0462
541,0;-0,0462
540,0;-0,0463
539,0;-0,0463
538,0;-0,0462
537,0;-0,0464
536,0;-0,0465
535,0;-0,0464
534,0;-0,0465
533,0;-0,0465
532,0;-0,0466
531,0;-0,0466
530,0;-0,0467
529,0;-0,0467
528,0;-0,0467
527,0;-0,0468
526,0;-0,0468
525,0;-0,0469
524,0;-0,0470
523,0;-0,0470
522,0;-0,0470
521,0;-0,0472
520,0;-0,0471
519,0;-0,0472
518,0;-0,0474
517,0;-0,0474
516,0;-0,0475
515,0;-0,0475
514,0;-0,0476
513,0;-0,0477
512,0;-0,0478
511,0;-0,0479
510,0;-0,0480
509,0;-0,0481
508,0;-0,0482
507,0;-0,0482
506,0;-0,0483
505,0;-0,0485
504,0;-0,0486
503,0;-0,0486
502,0;-0,0487
501,0;-0,0488
500,0;-0,0490
499,0;-0,0489
498,0;-0,0490
497,0;-0,0492
496,0;-0,0493
495,0;-0,0495
494,0;-0,0496
493,0;-0,0498
492,0;-0,0499
491,0;-0,0500
490,0;-0,0503
489,0;-0,0504
488,0;-0,0507
487,0;-0,0507
486,0;-0,0508
485,0;-0,0511
484,0;-0,0511
483,0;-0,0512
482,0;-0,0513
481,0;-0,0514
480,0;-0,0514
479,0;-0,0514
478,0;-0,0516
477,0;-0,0516
476,0;-0,0517
475,0;-0,0519
474,0;-0,0520
473,0;-0,0519
472,0;-0,0519
471,0;-0,0520
470,0;-0,0522
469,0;-0,0523
468,0;-0,0523
467,0;-0,0524
466,0;-0,0526
465,0;-0,0526
464,0;-0,0527
463,0;-0,0528
462,0;-0,0530
461,0;-0,0531
460,0;-0,0533
459,0;-0,0534
458,0;-0,0536
457,0;-0,0537
456,0;-0,0539
455,0;-0,0541
454,0;-0,0543
453,0;-0,0545
452,0;-0,0548
451,0;-0,0550
450,0;-0,0553
449,0;-0,0557
448,0;-0,0561
447,0;-0,0564
446,0;-0,0569
445,0;-0,0571
444,0;-0,0575
443,0;-0,0580
442,0;-0,0582
441,0;-0,0587
440,0;-0,0591
439,0;-0,0596
438,0;-0,0600
437,0;-0,0604
436,0;-0,0607
435,0;-0,0611
434,0;-0,0615
433,0;-0,0619
432,0;-0,0623
431,0;-0,0627
430,0;-0,0634
429,0;-0,0638
428,0;-0,0642
427,0;-0,0645
426,0;-0,0649
425,0;-0,0652
424,0;-0,0656
423,0;-0,0660
422,0;-0,0660
421,0;-0,0661
420,0;-0,0665
419,0;-0,0670
418,0;-0,0673
417,0;-0,0676
416,0;-0,0681
415,0;-0,0684
414,0;-0,0689
413,0;-0,0693
412,0;-0,0695
411,0;-0,0701
410,0;-0,0705
409,0;-0,0710
408,0;-0,0714
407,0;-0,0719
406,0;-0,0724
405,0;-0,0728
404,0;-0,0733
403,0;-0,0737
402,0;-0,0743
401,0;-0,0747
400,0;-0,0752
399,0;-0,0757
398,0;-0,0763
397,0;-0,0769
396,0;-0,0774
395,0;-0,0780
394,0;-0,0784
393,0;-0,0790
392,0;-0,0797
391,0;-0,0803
390,0;-0,0809
389,0;-0,0817
388,0;-0,0822
387,0;-0,0828
386,0;-0,0835
385,0;-0,0841
384,0;-0,0854
383,0;-0,0866
382,0;-0,0869
381,0;-0,0875
380,0;-0,0880
379,0;-0,0887
378,0;-0,0892
377,0;-0,0900
376,0;-0,0905
375,0;-0,0908
374,0;-0,0912
373,0;-0,0917
372,0;-0,0922
371,0;-0,0928
370,0;-0,0932
369,0;-0,0936
368,0;-0,0944
367,0;-0,0947
366,0;-0,0952
365,0;-0,0955
364,0;-0,0959
363,0;-0,0964
362,0;-0,0967
361,0;-0,0971
360,0;-0,0975
359,0;-0,0977
358,0;-0,0981
357,0;-0,0984
356,0;-0,0989
355,0;-0,0992
354,0;-0,0998
353,0;-0,1001
352,0;-0,1005
351,0;-0,1009
350,0;-0,1013
349,0;-0,1018
348,0;-0,1023
347,0;-0,1030
346,0;-0,1036
345,0;-0,1043
344,0;-0,1051
343,0;-0,1058
342,0;-0,1064
341,0;-0,1073
340,0;-0,1080
339,0;-0,1089
338,0;-0,1096
337,0;-0,1104
336,0;-0,1112
335,0;-0,1124
334,0;-0,1134
333,0;-0,1145
332,0;-0,1155
331,0;-0,1167
330,0;-0,1178
329,0;-0,1191
328,0;-0,1204
327,0;-0,1219
326,0;-0,1235
325,0;-0,1249
324,0;-0,1262
323,0;-0,1280
322,0;-0,1297
321,0;-0,1315
320,0;-0,1333
319,0;-0,1353
318,0;-0,1372
317,0;-0,1396
316,0;-0,1417
315,0;-0,1440
314,0;-0,1466
313,0;-0,1494
312,0;-0,1524
311,0;-0,1556
310,0;-0,1587
309,0;-0,1621
308,0;-0,1659
307,0;-0,1698
306,0;-0,1740
305,0;-0,1784
304,0;-0,1828
303,0;-0,1876
302,0;-0,1923
301,0;-0,1975
300,0;-0,2030
299,0;-0,2083
298,0;-0,2140
297,0;-0,2197
296,0;-0,2263
295,0;-0,2332
294,0;-0,2406
293,0;-0,2491
292,0;-0,2589
291,0;-0,2702
290,0;-0,2838
289,0;-0,3000
288,0;-0,3180
287,0;-0,3371
286,0;-0,3557
285,0;-0,3720
284,0;-0,3859
283,0;-0,3988
282,0;-0,4121
281,0;-0,4267
280,0;-0,4416
279,0;-0,4559
278,0;-0,4677
277,0;-0,4765
276,0;-0,4828
275,0;-0,4873
274,0;-0,4907
273,0;-0,4930
272,0;-0,4952
271,0;-0,4970
270,0;-0,4981
269,0;-0,4972
268,0;-0,4954
267,0;-0,4921
266,0;-0,4884
265,0;-0,4845
264,0;-0,4805
263,0;-0,4766
262,0;-0,4728
261,0;-0,4693
260,0;-0,4656
259,0;-0,4623
258,0;-0,4593
257,0;-0,4568
256,0;-0,4549
255,0;-0,4538
254,0;-0,4539
253,0;-0,4553
252,0;-0,4589
251,0;-0,4649
250,0;-0,4742
249,0;-0,4876
248,0;-0,5066
247,0;-0,5330
246,0;-0,5674
245,0;-0,6117
244,0;-0,6664
243,0;-0,7312
242,0;-0,8075
241,0;-0,8912
240,0;-0,9808
239,0;-1,0757
238,0;-1,1733
237,0;-1,2766
236,0;-1,3868
235,0;-1,5052
234,0;-1,6292
233,0;-1,7549
232,0;-1,8797
231,0;-2,0021
230,0;-2,1190
229,0;-2,2334
228,0;-2,3379
227,0;-2,4320
226,0;-2,5246
225,0;-2,6098
224,0;-2,6916
223,0;-2,7647
222,0;-2,8422
221,0;-2,9258
220,0;-3,0168
219,0;-3,0665
218,0;-3,1692
217,0;-3,2492
216,0;-3,2754
215,0;-3,3374
214,0;-3,3579
213,0;-3,3535
212,0;-3,3555
211,0;-3,3344
210,0;-3,3312
209,0;-3,3610
208,0;-3,3866
207,0;-3,3716
206,0;-3,3650
205,0;-3,3236
204,0;-3,3346
203,0;-3,2453
202,0;-3,2326
201,0;-3,2357
200,0;-3,2454
